Time,Signal_uV
0,-0.385
0.0078125,-0.395
0.015625,-0.375
0.0234375,-0.365
0.03125,-0.345
0.0390625,-0.345
0.046875,-0.325
0.0546875,-0.305
0.0625,-0.285
0.0703125,-0.275
0.078125,-0.265
0.0859375,-0.255
0.09375,-0.245
0.1015625,-0.245
0.109375,-0.255
0.1171875,-0.255
0.125,-0.265
0.1328125,-0.275
0.140625,-0.275
0.1484375,-0.285
0.15625,-0.295
0.1640625,-0.295
0.171875,-0.295
0.1796875,-0.295
0.1875,-0.295
0.1953125,-0.305
0.203125,-0.305
0.2109375,-0.295
0.21875,-0.295
0.2265625,-0.285
0.234375,-0.285
0.2421875,-0.285
0.25,-0.275
0.2578125,-0.285
0.265625,-0.285
0.2734375,-0.265
0.28125,-0.275
0.2890625,-0.275
0.296875,-0.265
0.3046875,-0.265
0.3125,-0.265
0.3203125,-0.255
0.328125,-0.255
0.3359375,-0.255
0.34375,-0.245
0.3515625,-0.245
0.359375,-0.245
0.3671875,-0.245
0.375,-0.235
0.3828125,-0.235
0.390625,-0.205
0.3984375,-0.125
0.40625,-0.105
0.4140625,-0.125
0.421875,-0.075
0.4296875,-0.115
0.4375,-0.145
0.4453125,-0.165
0.453125,-0.205
0.4609375,-0.195
0.46875,-0.245
0.4765625,-0.255
0.484375,-0.265
0.4921875,-0.265
0.5,-0.255
0.5078125,-0.255
0.515625,-0.245
0.5234375,-0.225
0.53125,-0.215
0.5390625,-0.245
0.546875,-0.275
0.5546875,0.415
0.5625,1.955
0.5703125,2.405
0.578125,0.155
0.5859375,-1.515
0.59375,-1.105
0.6015625,-0.665
0.609375,-0.315
0.6171875,-0.145
0.625,-0.095
0.6328125,-0.065
0.640625,-0.035
0.6484375,-0.015
0.65625,-0.005
0.6640625,0.015
0.671875,0.045
0.6796875,0.075
0.6875,0.085
0.6953125,0.125
0.703125,0.145
0.7109375,0.175
0.71875,0.215
0.7265625,0.255
0.734375,0.305
0.7421875,0.365
0.75,0.425
0.7578125,0.495
0.765625,0.585
0.7734375,0.655
0.78125,0.735
0.7890625,0.795
0.796875,0.825
0.8046875,0.835
0.8125,0.795
0.8203125,0.725
0.828125,0.615
0.8359375,0.455
0.84375,0.285
0.8515625,0.125
0.859375,-0.015
0.8671875,-0.115
0.875,-0.205
0.8828125,-0.265
0.890625,-0.315
0.8984375,-0.325
0.90625,-0.345
0.9140625,-0.355
0.921875,-0.355
0.9296875,-0.345
0.9375,-0.345
0.9453125,-0.325
0.953125,-0.315
0.9609375,-0.305
0.96875,-0.285
0.9765625,-0.275
0.984375,-0.255
0.9921875,-0.245
1,-0.235
1.0078125,-0.225
1.015625,-0.235
1.0234375,-0.225
1.03125,-0.235
1.0390625,-0.245
1.046875,-0.245
1.0546875,-0.255
1.0625,-0.255
1.0703125,-0.255
1.078125,-0.265
1.0859375,-0.265
1.09375,-0.255
1.1015625,-0.265
1.109375,-0.255
1.1171875,-0.255
1.125,-0.255
1.1328125,-0.245
1.140625,-0.255
1.1484375,-0.245
1.15625,-0.245
1.1640625,-0.245
1.171875,-0.235
1.1796875,-0.245
1.1875,-0.235
1.1953125,-0.235
1.203125,-0.235
1.2109375,-0.215
1.21875,-0.215
1.2265625,-0.215
1.234375,-0.215
1.2421875,-0.215
1.25,-0.215
1.2578125,-0.205
1.265625,-0.205
1.2734375,-0.195
1.28125,-0.205
1.2890625,-0.185
1.296875,-0.115
1.3046875,-0.065
1.3125,-0.085
1.3203125,-0.065
1.328125,-0.045
1.3359375,-0.095
1.34375,-0.115
1.3515625,-0.155
1.359375,-0.175
1.3671875,-0.175
1.375,-0.215
1.3828125,-0.215
1.390625,-0.215
1.3984375,-0.215
1.40625,-0.205
1.4140625,-0.195
1.421875,-0.195
1.4296875,-0.175
1.4375,-0.165
1.4453125,-0.235
1.453125,-0.105
1.4609375,1.155
1.46875,2.405
1.4765625,2.235
1.484375,-0.795
1.4921875,-1.295
1.5,-0.925
1.5078125,-0.565
1.515625,-0.235
1.5234375,-0.065
1.53125,-0.035
1.5390625,-0.005
1.546875,0.025
1.5546875,0.035
1.5625,0.055
1.5703125,0.075
1.578125,0.105
1.5859375,0.135
1.59375,0.155
1.6015625,0.175
1.609375,0.205
1.6171875,0.255
1.625,0.295
1.6328125,0.335
1.640625,0.395
1.6484375,0.445
1.65625,0.525
1.6640625,0.615
1.671875,0.695
1.6796875,0.775
1.6875,0.865
1.6953125,0.915
1.703125,0.945
1.7109375,0.935
1.71875,0.905
1.7265625,0.815
1.734375,0.675
1.7421875,0.515
1.75,0.355
1.7578125,0.185
1.765625,0.065
1.7734375,-0.065
1.78125,-0.145
1.7890625,-0.225
1.796875,-0.275
1.8046875,-0.325
1.8125,-0.325
1.8203125,-0.325
1.828125,-0.325
1.8359375,-0.325
1.84375,-0.305
1.8515625,-0.305
1.859375,-0.295
1.8671875,-0.265
1.875,-0.245
1.8828125,-0.245
1.890625,-0.235
1.8984375,-0.225
1.90625,-0.215
1.9140625,-0.215
1.921875,-0.215
1.9296875,-0.225
1.9375,-0.225
1.9453125,-0.225
1.953125,-0.245
1.9609375,-0.245
1.96875,-0.245
1.9765625,-0.255
1.984375,-0.265
1.9921875,-0.265
2,-0.265
2.0078125,-0.265
2.015625,-0.275
2.0234375,-0.275
2.03125,-0.265
2.0390625,-0.255
2.046875,-0.265
2.0546875,-0.255
2.0625,-0.265
2.0703125,-0.265
2.078125,-0.265
2.0859375,-0.255
2.09375,-0.255
2.1015625,-0.255
2.109375,-0.255
2.1171875,-0.245
2.125,-0.245
2.1328125,-0.245
2.140625,-0.255
2.1484375,-0.175
2.15625,-0.125
2.1640625,-0.125
2.171875,-0.125
2.1796875,-0.085
2.1875,-0.145
2.1953125,-0.165
2.203125,-0.215
2.2109375,-0.215
2.21875,-0.225
2.2265625,-0.275
2.234375,-0.265
2.2421875,-0.265
2.25,-0.255
2.2578125,-0.265
2.265625,-0.255
2.2734375,-0.255
2.28125,-0.245
2.2890625,-0.235
2.296875,-0.275
2.3046875,-0.155
2.3125,1.065
2.3203125,2.335
2.328125,2.015
2.3359375,-1.155
2.34375,-1.375
2.3515625,-0.945
2.359375,-0.565
2.3671875,-0.275
2.375,-0.135
2.3828125,-0.095
2.390625,-0.075
2.3984375,-0.055
2.40625,-0.035
2.4140625,-0.005
2.421875,0.025
2.4296875,0.045
2.4375,0.065
2.4453125,0.095
2.453125,0.125
2.4609375,0.155
2.46875,0.185
2.4765625,0.235
2.484375,0.285
2.4921875,0.345
2.5,0.395
2.5078125,0.475
2.515625,0.565
2.5234375,0.655
2.53125,0.755
2.5390625,0.825
2.546875,0.875
2.5546875,0.905
2.5625,0.895
2.5703125,0.855
2.578125,0.765
2.5859375,0.595
2.59375,0.415
2.6015625,0.225
2.609375,0.065
2.6171875,-0.075
2.625,-0.185
2.6328125,-0.275
2.640625,-0.335
2.6484375,-0.365
2.65625,-0.395
2.6640625,-0.405
2.671875,-0.415
2.6796875,-0.415
2.6875,-0.415
2.6953125,-0.405
2.703125,-0.395
2.7109375,-0.375
2.71875,-0.365
2.7265625,-0.355
2.734375,-0.335
2.7421875,-0.315
2.75,-0.305
2.7578125,-0.295
2.765625,-0.305
2.7734375,-0.285
2.78125,-0.285
2.7890625,-0.305
2.796875,-0.315
2.8046875,-0.305
2.8125,-0.325
2.8203125,-0.325
2.828125,-0.325
2.8359375,-0.335
2.84375,-0.335
2.8515625,-0.335
2.859375,-0.335
2.8671875,-0.335
2.875,-0.325
2.8828125,-0.335
2.890625,-0.335
2.8984375,-0.325
2.90625,-0.325
2.9140625,-0.325
2.921875,-0.335
2.9296875,-0.335
2.9375,-0.325
2.9453125,-0.325
2.953125,-0.325
2.9609375,-0.315
2.96875,-0.305
2.9765625,-0.295
2.984375,-0.305
2.9921875,-0.305
3,-0.295
3.0078125,-0.295
3.015625,-0.285
3.0234375,-0.265
3.03125,-0.195
3.0390625,-0.155
3.046875,-0.185
3.0546875,-0.145
3.0625,-0.165
3.0703125,-0.205
3.078125,-0.215
3.0859375,-0.255
3.09375,-0.255
3.1015625,-0.295
3.109375,-0.325
3.1171875,-0.315
3.125,-0.305
3.1328125,-0.315
3.140625,-0.305
3.1484375,-0.295
3.15625,-0.285
3.1640625,-0.265
3.171875,-0.305
3.1796875,-0.325
3.1875,0.375
3.1953125,1.975
3.203125,2.325
3.2109375,-0.145
3.21875,-1.605
3.2265625,-1.115
3.234375,-0.645
3.2421875,-0.315
3.25,-0.155
3.2578125,-0.135
3.265625,-0.105
3.2734375,-0.075
3.28125,-0.055
3.2890625,-0.035
3.296875,-0.015
3.3046875,0.015
3.3125,0.035
3.3203125,0.065
3.328125,0.095
3.3359375,0.115
3.34375,0.155
3.3515625,0.195
3.359375,0.245
3.3671875,0.305
3.375,0.365
3.3828125,0.445
3.390625,0.525
3.3984375,0.635
3.40625,0.725
3.4140625,0.805
3.421875,0.855
3.4296875,0.885
3.4375,0.875
3.4453125,0.835
3.453125,0.745
3.4609375,0.615
3.46875,0.425
3.4765625,0.235
3.484375,0.075
3.4921875,-0.065
3.5,-0.175
3.5078125,-0.265
3.515625,-0.325
3.5234375,-0.365
3.53125,-0.385
3.5390625,-0.405
3.546875,-0.425
3.5546875,-0.415
3.5625,-0.405
3.5703125,-0.395
3.578125,-0.395
3.5859375,-0.365
3.59375,-0.365
3.6015625,-0.335
3.609375,-0.335
3.6171875,-0.305
3.625,-0.295
3.6328125,-0.295
3.640625,-0.295
3.6484375,-0.285
3.65625,-0.285
3.6640625,-0.285
3.671875,-0.295
3.6796875,-0.305
3.6875,-0.305
3.6953125,-0.315
3.703125,-0.325
3.7109375,-0.325
3.71875,-0.325
3.7265625,-0.325
3.734375,-0.325
3.7421875,-0.325
3.75,-0.325
3.7578125,-0.325
3.765625,-0.325
3.7734375,-0.325
3.78125,-0.315
3.7890625,-0.325
3.796875,-0.315
3.8046875,-0.305
3.8125,-0.305
3.8203125,-0.305
3.828125,-0.315
3.8359375,-0.295
3.84375,-0.285
3.8515625,-0.285
3.859375,-0.295
3.8671875,-0.285
3.875,-0.285
3.8828125,-0.275
3.890625,-0.275
3.8984375,-0.255
3.90625,-0.265
3.9140625,-0.255
3.921875,-0.175
3.9296875,-0.125
3.9375,-0.145
3.9453125,-0.135
3.953125,-0.115
3.9609375,-0.175
3.96875,-0.195
3.9765625,-0.225
3.984375,-0.225
3.9921875,-0.265
4,-0.285
4.0078125,-0.295
4.015625,-0.285
4.0234375,-0.285
4.03125,-0.285
4.0390625,-0.275
4.046875,-0.275
4.0546875,-0.245
4.0625,-0.245
4.0703125,-0.275
4.078125,-0.185
4.0859375,1.035
4.09375,2.265
4.1015625,2.095
4.109375,-0.955
4.1171875,-1.455
4.125,-0.965
4.1328125,-0.535
4.140625,-0.235
4.1484375,-0.115
4.15625,-0.105
4.1640625,-0.065
4.171875,-0.045
4.1796875,-0.025
4.1875,-0.005
4.1953125,0.015
4.203125,0.035
4.2109375,0.065
4.21875,0.095
4.2265625,0.115
4.234375,0.155
4.2421875,0.195
4.25,0.235
4.2578125,0.285
4.265625,0.345
4.2734375,0.405
4.28125,0.485
4.2890625,0.575
4.296875,0.645
4.3046875,0.725
4.3125,0.795
4.3203125,0.845
4.328125,0.855
4.3359375,0.835
4.34375,0.785
4.3515625,0.675
4.359375,0.525
4.3671875,0.355
4.375,0.185
4.3828125,0.055
4.390625,-0.075
4.3984375,-0.165
4.40625,-0.255
4.4140625,-0.305
4.421875,-0.345
4.4296875,-0.365
4.4375,-0.375
4.4453125,-0.385
4.453125,-0.385
4.4609375,-0.365
4.46875,-0.355
4.4765625,-0.345
4.484375,-0.335
4.4921875,-0.315
4.5,-0.305
4.5078125,-0.285
4.515625,-0.275
4.5234375,-0.265
4.53125,-0.265
4.5390625,-0.265
4.546875,-0.265
4.5546875,-0.265
4.5625,-0.275
4.5703125,-0.275
4.578125,-0.285
4.5859375,-0.285
4.59375,-0.285
4.6015625,-0.295
4.609375,-0.315
4.6171875,-0.305
4.625,-0.295
4.6328125,-0.295
4.640625,-0.305
4.6484375,-0.295
4.65625,-0.295
4.6640625,-0.285
4.671875,-0.285
4.6796875,-0.295
4.6875,-0.295
4.6953125,-0.275
4.703125,-0.275
4.7109375,-0.275
4.71875,-0.265
4.7265625,-0.265
4.734375,-0.265
4.7421875,-0.255
4.75,-0.255
4.7578125,-0.245
4.765625,-0.255
4.7734375,-0.255
4.78125,-0.235
4.7890625,-0.225
4.796875,-0.165
4.8046875,-0.115
4.8125,-0.115
4.8203125,-0.105
4.828125,-0.065
4.8359375,-0.115
4.84375,-0.135
4.8515625,-0.175
4.859375,-0.195
4.8671875,-0.215
4.875,-0.245
4.8828125,-0.245
4.890625,-0.245
4.8984375,-0.235
4.90625,-0.225
4.9140625,-0.215
4.921875,-0.215
4.9296875,-0.195
4.9375,-0.205
4.9453125,-0.255
4.953125,0.085
4.9609375,1.585
4.96875,2.395
4.9765625,0.955
4.984375,-1.445
4.9921875,-1.135
5,-0.785
5.0078125,-0.435
5.015625,-0.155
5.0234375,-0.065
5.03125,-0.035
5.0390625,-0.005
5.046875,0.015
5.0546875,0.035
5.0625,0.055
5.0703125,0.075
5.078125,0.085
5.0859375,0.135
5.09375,0.165
5.1015625,0.175
5.109375,0.205
5.1171875,0.245
5.125,0.295
5.1328125,0.345
5.140625,0.395
5.1484375,0.485
5.15625,0.565
5.1640625,0.635
5.171875,0.725
5.1796875,0.825
5.1875,0.885
5.1953125,0.925
5.203125,0.925
5.2109375,0.905
5.21875,0.845
5.2265625,0.735
5.234375,0.585
5.2421875,0.405
5.25,0.225
5.2578125,0.075
5.265625,-0.035
5.2734375,-0.135
5.28125,-0.215
5.2890625,-0.275
5.296875,-0.305
5.3046875,-0.315
5.3125,-0.325
5.3203125,-0.325
5.328125,-0.325
5.3359375,-0.315
5.34375,-0.295
5.3515625,-0.285
5.359375,-0.275
5.3671875,-0.265
5.375,-0.255
5.3828125,-0.235
5.390625,-0.225
5.3984375,-0.225
5.40625,-0.215
5.4140625,-0.215
5.421875,-0.225
5.4296875,-0.225
5.4375,-0.235
5.4453125,-0.235
5.453125,-0.245
5.4609375,-0.245
5.46875,-0.255
5.4765625,-0.255
5.484375,-0.265
5.4921875,-0.255
5.5,-0.255
5.5078125,-0.265
5.515625,-0.265
5.5234375,-0.265
5.53125,-0.255
5.5390625,-0.255
5.546875,-0.255
5.5546875,-0.255
5.5625,-0.245
5.5703125,-0.235
5.578125,-0.235
5.5859375,-0.245
5.59375,-0.235
5.6015625,-0.235
5.609375,-0.235
5.6171875,-0.225
5.625,-0.155
5.6328125,-0.105
5.640625,-0.145
5.6484375,-0.095
5.65625,-0.085
5.6640625,-0.155
5.671875,-0.165
5.6796875,-0.195
5.6875,-0.195
5.6953125,-0.235
5.703125,-0.255
5.7109375,-0.255
5.71875,-0.245
5.7265625,-0.255
5.734375,-0.255
5.7421875,-0.235
5.75,-0.225
5.7578125,-0.215
5.765625,-0.245
5.7734375,-0.265
5.78125,0.395
5.7890625,1.935
5.796875,2.355
5.8046875,0.075
5.8125,-1.575
5.8203125,-1.075
5.828125,-0.705
5.8359375,-0.335
5.84375,-0.115
5.8515625,-0.075
5.859375,-0.045
5.8671875,-0.025
5.875,0.005
5.8828125,0.025
5.890625,0.045
5.8984375,0.075
5.90625,0.095
5.9140625,0.125
5.921875,0.145
5.9296875,0.175
5.9375,0.215
5.9453125,0.255
5.953125,0.295
5.9609375,0.345
5.96875,0.425
5.9765625,0.495
5.984375,0.585
5.9921875,0.675
6,0.775
6.0078125,0.865
6.015625,0.935
6.0234375,0.955
6.03125,0.955
6.0390625,0.905
6.046875,0.805
6.0546875,0.665
6.0625,0.465
6.0703125,0.275
6.078125,0.115
6.0859375,-0.035
6.09375,-0.155
6.1015625,-0.235
6.109375,-0.295
6.1171875,-0.345
6.125,-0.365
6.1328125,-0.375
6.140625,-0.385
6.1484375,-0.385
6.15625,-0.385
6.1640625,-0.375
6.171875,-0.375
6.1796875,-0.355
6.1875,-0.335
6.1953125,-0.325
6.203125,-0.315
6.2109375,-0.285
6.21875,-0.275
6.2265625,-0.275
6.234375,-0.275
6.2421875,-0.265
6.25,-0.265
6.2578125,-0.275
6.265625,-0.295
6.2734375,-0.275
6.28125,-0.285
6.2890625,-0.295
6.296875,-0.295
6.3046875,-0.295
6.3125,-0.295
6.3203125,-0.305
6.328125,-0.305
6.3359375,-0.295
6.34375,-0.305
6.3515625,-0.305
6.359375,-0.305
6.3671875,-0.295
6.375,-0.305
6.3828125,-0.305
6.390625,-0.295
6.3984375,-0.295
6.40625,-0.285
6.4140625,-0.285
6.421875,-0.295
6.4296875,-0.275
6.4375,-0.275
6.4453125,-0.275
6.453125,-0.275
6.4609375,-0.225
6.46875,-0.165
6.4765625,-0.155
6.484375,-0.165
6.4921875,-0.125
6.5,-0.165
6.5078125,-0.195
6.515625,-0.215
6.5234375,-0.245
6.53125,-0.245
6.5390625,-0.295
6.546875,-0.305
6.5546875,-0.295
6.5625,-0.285
6.5703125,-0.285
6.578125,-0.285
6.5859375,-0.275
6.59375,-0.265
6.6015625,-0.255
6.609375,-0.285
6.6171875,-0.135
6.625,1.215
6.6328125,2.325
6.640625,1.635
6.6484375,-1.345
6.65625,-1.345
6.6640625,-0.905
6.671875,-0.515
6.6796875,-0.215
6.6875,-0.145
6.6953125,-0.105
6.703125,-0.075
6.7109375,-0.055
6.71875,-0.035
6.7265625,-0.005
6.734375,0.015
6.7421875,0.035
6.75,0.055
6.7578125,0.085
6.765625,0.115
6.7734375,0.155
6.78125,0.205
6.7890625,0.235
6.796875,0.295
6.8046875,0.355
6.8125,0.445
6.8203125,0.515
6.828125,0.595
6.8359375,0.695
6.84375,0.795
6.8515625,0.845
6.859375,0.895
6.8671875,0.905
6.875,0.895
6.8828125,0.825
6.890625,0.705
6.8984375,0.545
6.90625,0.365
6.9140625,0.195
6.921875,0.025
6.9296875,-0.095
6.9375,-0.185
6.9453125,-0.275
6.953125,-0.335
6.9609375,-0.365
6.96875,-0.395
6.9765625,-0.415
6.984375,-0.425
6.9921875,-0.415
7,-0.415
7.0078125,-0.395
7.015625,-0.395
7.0234375,-0.375
7.03125,-0.355
7.0390625,-0.335
7.046875,-0.325
7.0546875,-0.305
7.0625,-0.295
7.0703125,-0.285
7.078125,-0.285
7.0859375,-0.285
7.09375,-0.285
7.1015625,-0.285
7.109375,-0.295
7.1171875,-0.295
7.125,-0.315
7.1328125,-0.305
7.140625,-0.325
7.1484375,-0.305
7.15625,-0.315
7.1640625,-0.305
7.171875,-0.325
7.1796875,-0.315
7.1875,-0.315
7.1953125,-0.315
7.203125,-0.315
7.2109375,-0.305
7.21875,-0.305
7.2265625,-0.305
7.234375,-0.305
7.2421875,-0.305
7.25,-0.295
7.2578125,-0.295
7.265625,-0.305
7.2734375,-0.295
7.28125,-0.285
7.2890625,-0.285
7.296875,-0.285
7.3046875,-0.265
7.3125,-0.265
7.3203125,-0.265
7.328125,-0.195
7.3359375,-0.125
7.34375,-0.145
7.3515625,-0.145
7.359375,-0.115
7.3671875,-0.175
7.375,-0.195
7.3828125,-0.215
7.390625,-0.255
7.3984375,-0.245
7.40625,-0.295
7.4140625,-0.295
7.421875,-0.305
7.4296875,-0.285
7.4375,-0.285
7.4453125,-0.275
7.453125,-0.265
7.4609375,-0.255
7.46875,-0.255
7.4765625,-0.275
7.484375,-0.245
7.4921875,0.875
7.5,2.255
7.5078125,2.205
7.515625,-0.875
7.5234375,-1.485
7.53125,-0.945
7.5390625,-0.495
7.546875,-0.205
7.5546875,-0.135
7.5625,-0.105
7.5703125,-0.085
7.578125,-0.055
7.5859375,-0.025
7.59375,-0.005
7.6015625,0.015
7.609375,0.035
7.6171875,0.055
7.625,0.095
7.6328125,0.115
7.640625,0.145
7.6484375,0.195
7.65625,0.225
7.6640625,0.275
7.671875,0.335
7.6796875,0.405
7.6875,0.495
7.6953125,0.565
7.703125,0.645
7.7109375,0.725
7.71875,0.805
7.7265625,0.845
7.734375,0.855
7.7421875,0.845
7.75,0.795
7.7578125,0.705
7.765625,0.545
7.7734375,0.395
7.78125,0.225
7.7890625,0.075
7.796875,-0.065
7.8046875,-0.155
7.8125,-0.235
7.8203125,-0.295
7.828125,-0.335
7.8359375,-0.355
7.84375,-0.365
7.8515625,-0.375
7.859375,-0.385
7.8671875,-0.375
7.875,-0.365
7.8828125,-0.355
7.890625,-0.345
7.8984375,-0.335
7.90625,-0.325
7.9140625,-0.305
7.921875,-0.285
7.9296875,-0.275
7.9375,-0.275
7.9453125,-0.265
7.953125,-0.265
7.9609375,-0.265
7.96875,-0.265
7.9765625,-0.265
7.984375,-0.275
7.9921875,-0.295
8,-0.295
8.0078125,-0.305
8.015625,-0.305
8.0234375,-0.305
8.03125,-0.305
8.0390625,-0.305
8.046875,-0.315
8.0546875,-0.305
8.0625,-0.305
8.0703125,-0.305
8.078125,-0.305
8.0859375,-0.295
8.09375,-0.285
8.1015625,-0.285
8.109375,-0.295
8.1171875,-0.285
8.125,-0.285
8.1328125,-0.285
8.140625,-0.275
8.1484375,-0.275
8.15625,-0.265
8.1640625,-0.245
8.171875,-0.255
8.1796875,-0.255
8.1875,-0.245
8.1953125,-0.225
8.203125,-0.155
8.2109375,-0.105
8.21875,-0.135
8.2265625,-0.095
8.234375,-0.105
8.2421875,-0.145
8.25,-0.165
8.2578125,-0.215
8.265625,-0.205
8.2734375,-0.245
8.28125,-0.265
8.2890625,-0.265
8.296875,-0.275
8.3046875,-0.255
8.3125,-0.245
8.3203125,-0.245
8.328125,-0.245
8.3359375,-0.215
8.34375,-0.235
8.3515625,-0.275
8.359375,0.235
8.3671875,1.815
8.375,2.405
8.3828125,0.755
8.390625,-1.485
8.3984375,-1.165
8.40625,-0.755
8.4140625,-0.405
8.421875,-0.175
8.4296875,-0.105
8.4375,-0.075
8.4453125,-0.045
8.453125,-0.025
8.4609375,-0.005
8.46875,0.025
8.4765625,0.045
8.484375,0.075
8.4921875,0.095
8.5,0.115
8.5078125,0.155
8.515625,0.185
8.5234375,0.215
8.53125,0.265
8.5390625,0.315
8.546875,0.375
8.5546875,0.445
8.5625,0.515
8.5703125,0.605
8.578125,0.685
8.5859375,0.785
8.59375,0.855
8.6015625,0.895
8.609375,0.915
8.6171875,0.915
8.625,0.875
8.6328125,0.765
8.640625,0.605
8.6484375,0.445
8.65625,0.275
8.6640625,0.115
8.671875,-0.015
8.6796875,-0.105
8.6875,-0.195
8.6953125,-0.255
8.703125,-0.305
8.7109375,-0.325
8.71875,-0.345
8.7265625,-0.345
8.734375,-0.335
8.7421875,-0.335
8.75,-0.315
8.7578125,-0.315
8.765625,-0.295
8.7734375,-0.275
8.78125,-0.265
8.7890625,-0.245
8.796875,-0.255
8.8046875,-0.225
8.8125,-0.215
8.8203125,-0.215
8.828125,-0.215
8.8359375,-0.215
8.84375,-0.225
8.8515625,-0.235
8.859375,-0.245
8.8671875,-0.245
8.875,-0.255
8.8828125,-0.255
8.890625,-0.255
8.8984375,-0.265
8.90625,-0.255
8.9140625,-0.255
8.921875,-0.265
8.9296875,-0.255
8.9375,-0.255
8.9453125,-0.245
8.953125,-0.245
8.9609375,-0.255
8.96875,-0.255
8.9765625,-0.245
8.984375,-0.245
8.9921875,-0.245
9,-0.235
9.0078125,-0.245
9.015625,-0.235
9.0234375,-0.225
9.03125,-0.135
9.0390625,-0.105
9.046875,-0.135
9.0546875,-0.095
9.0625,-0.075
9.0703125,-0.165
9.078125,-0.165
9.0859375,-0.205
9.09375,-0.205
9.1015625,-0.255
9.109375,-0.255
9.1171875,-0.255
9.125,-0.245
9.1328125,-0.245
9.140625,-0.245
9.1484375,-0.225
9.15625,-0.215
9.1640625,-0.215
9.171875,-0.245
9.1796875,-0.265
9.1875,0.505
9.1953125,1.905
9.203125,2.375
9.2109375,0.425
9.21875,-1.585
9.2265625,-1.145
9.234375,-0.775
9.2421875,-0.405
9.25,-0.145
9.2578125,-0.075
9.265625,-0.065
9.2734375,-0.035
9.28125,-0.005
9.2890625,0.015
9.296875,0.035
9.3046875,0.065
9.3125,0.085
9.3203125,0.115
9.328125,0.145
9.3359375,0.175
9.34375,0.205
9.3515625,0.245
9.359375,0.285
9.3671875,0.355
9.375,0.415
9.3828125,0.475
9.390625,0.545
9.3984375,0.645
9.40625,0.755
9.4140625,0.835
9.421875,0.895
9.4296875,0.935
9.4375,0.935
9.4453125,0.915
9.453125,0.825
9.4609375,0.715
9.46875,0.535
9.4765625,0.355
9.484375,0.185
9.4921875,0.045
9.5,-0.085
9.5078125,-0.195
9.515625,-0.275
9.5234375,-0.305
9.53125,-0.345
9.5390625,-0.365
9.546875,-0.375
9.5546875,-0.375
9.5625,-0.375
9.5703125,-0.375
9.578125,-0.355
9.5859375,-0.355
9.59375,-0.345
9.6015625,-0.325
9.609375,-0.305
9.6171875,-0.295
9.625,-0.285
9.6328125,-0.285
9.640625,-0.275
9.6484375,-0.265
9.65625,-0.265
9.6640625,-0.275
9.671875,-0.285
9.6796875,-0.285
9.6875,-0.295
9.6953125,-0.295
9.703125,-0.305
9.7109375,-0.305
9.71875,-0.305
9.7265625,-0.305
9.734375,-0.305
9.7421875,-0.305
9.75,-0.315
9.7578125,-0.315
9.765625,-0.315
9.7734375,-0.305
9.78125,-0.305
9.7890625,-0.305
9.796875,-0.305
9.8046875,-0.295
9.8125,-0.295
9.8203125,-0.295
9.828125,-0.295
9.8359375,-0.295
9.84375,-0.295
9.8515625,-0.285
9.859375,-0.275
9.8671875,-0.275
9.875,-0.275
9.8828125,-0.275
9.890625,-0.255
9.8984375,-0.165
9.90625,-0.135
9.9140625,-0.155
9.921875,-0.145
9.9296875,-0.145
9.9375,-0.185
9.9453125,-0.195
9.953125,-0.235
9.9609375,-0.235
9.96875,-0.275
9.9765625,-0.295
9.984375,-0.295
9.9921875,-0.295
10,-0.295
10.0078125,-0.295
10.015625,-0.285
10.0234375,-0.275
10.03125,-0.265
10.0390625,-0.265
10.046875,-0.315
10.0546875,0.025
10.0625,1.525
10.0703125,2.365
10.078125,1.535
10.0859375,-1.375
10.09375,-1.375
10.1015625,-0.885
10.109375,-0.455
10.1171875,-0.195
10.125,-0.135
10.1328125,-0.105
10.140625,-0.075
10.1484375,-0.055
10.15625,-0.035
10.1640625,-0.015
10.171875,0.005
10.1796875,0.035
10.1875,0.055
10.1953125,0.075
10.203125,0.105
10.2109375,0.145
10.21875,0.185
10.2265625,0.225
10.234375,0.275
10.2421875,0.335
10.25,0.395
10.2578125,0.475
10.265625,0.555
10.2734375,0.645
10.28125,0.725
10.2890625,0.795
10.296875,0.825
10.3046875,0.835
10.3125,0.805
10.3203125,0.735
10.328125,0.635
10.3359375,0.475
10.34375,0.315
10.3515625,0.155
10.359375,0.005
10.3671875,-0.105
10.375,-0.205
10.3828125,-0.285
10.390625,-0.325
10.3984375,-0.355
10.40625,-0.375
10.4140625,-0.385
10.421875,-0.395
10.4296875,-0.395
10.4375,-0.375
10.4453125,-0.375
10.453125,-0.365
10.4609375,-0.345
10.46875,-0.325
10.4765625,-0.325
10.484375,-0.325
10.4921875,-0.295
10.5,-0.305
10.5078125,-0.275
10.515625,-0.285
10.5234375,-0.275
10.53125,-0.285
10.5390625,-0.285
10.546875,-0.305
10.5546875,-0.305
10.5625,-0.325
10.5703125,-0.315
10.578125,-0.325
10.5859375,-0.325
10.59375,-0.325
10.6015625,-0.325
10.609375,-0.325
10.6171875,-0.325
10.625,-0.325
10.6328125,-0.315
10.640625,-0.315
10.6484375,-0.325
10.65625,-0.305
10.6640625,-0.305
10.671875,-0.325
10.6796875,-0.305
10.6875,-0.305
10.6953125,-0.295
10.703125,-0.295
10.7109375,-0.295
10.71875,-0.255
10.7265625,-0.185
10.734375,-0.155
10.7421875,-0.185
10.75,-0.135
10.7578125,-0.165
10.765625,-0.225
10.7734375,-0.225
10.78125,-0.255
10.7890625,-0.265
10.796875,-0.305
10.8046875,-0.315
10.8125,-0.315
10.8203125,-0.325
10.828125,-0.325
10.8359375,-0.305
10.84375,-0.295
10.8515625,-0.295
10.859375,-0.295
10.8671875,-0.285
10.875,-0.325
10.8828125,0.015
10.890625,1.455
10.8984375,2.325
10.90625,1.245
10.9140625,-1.455
10.921875,-1.315
10.9296875,-0.855
10.9375,-0.465
10.9453125,-0.215
10.953125,-0.145
10.9609375,-0.115
10.96875,-0.095
10.9765625,-0.065
10.984375,-0.055
10.9921875,-0.025
11,-0.005
11.0078125,0.035
11.015625,0.045
11.0234375,0.075
11.03125,0.105
11.0390625,0.145
11.046875,0.175
11.0546875,0.215
11.0625,0.265
11.0703125,0.325
11.078125,0.395
11.0859375,0.475
11.09375,0.545
11.1015625,0.645
11.109375,0.705
11.1171875,0.775
11.125,0.805
11.1328125,0.815
11.140625,0.785
11.1484375,0.725
11.15625,0.605
11.1640625,0.455
11.171875,0.285
11.1796875,0.125
11.1875,-0.025
11.1953125,-0.135
11.203125,-0.225
11.2109375,-0.285
11.21875,-0.325
11.2265625,-0.355
11.234375,-0.385
11.2421875,-0.385
11.25,-0.385
11.2578125,-0.375
11.265625,-0.375
11.2734375,-0.365
11.28125,-0.355
11.2890625,-0.335
11.296875,-0.315
11.3046875,-0.305
11.3125,-0.295
11.3203125,-0.295
11.328125,-0.285
11.3359375,-0.265
11.34375,-0.265
11.3515625,-0.275
11.359375,-0.285
11.3671875,-0.285
11.375,-0.295
11.3828125,-0.295
11.390625,-0.305
11.3984375,-0.315
11.40625,-0.315
11.4140625,-0.315
11.421875,-0.315
11.4296875,-0.305
11.4375,-0.305
11.4453125,-0.315
11.453125,-0.325
11.4609375,-0.315
11.46875,-0.315
11.4765625,-0.315
11.484375,-0.295
11.4921875,-0.305
11.5,-0.295
11.5078125,-0.305
11.515625,-0.285
11.5234375,-0.285
11.53125,-0.295
11.5390625,-0.295
11.546875,-0.275
11.5546875,-0.245
11.5625,-0.175
11.5703125,-0.145
11.578125,-0.195
11.5859375,-0.115
11.59375,-0.135
11.6015625,-0.185
11.609375,-0.215
11.6171875,-0.255
11.625,-0.245
11.6328125,-0.295
11.640625,-0.305
11.6484375,-0.305
11.65625,-0.295
11.6640625,-0.305
11.671875,-0.305
11.6796875,-0.285
11.6875,-0.275
11.6953125,-0.265
11.703125,-0.295
11.7109375,-0.305
11.71875,0.235
11.7265625,1.775
11.734375,2.385
11.7421875,0.615
11.75,-1.495
11.7578125,-1.215
11.765625,-0.845
11.7734375,-0.455
11.78125,-0.205
11.7890625,-0.135
11.796875,-0.115
11.8046875,-0.075
11.8125,-0.055
11.8203125,-0.025
11.828125,-0.015
11.8359375,0.015
11.84375,0.035
11.8515625,0.055
11.859375,0.075
11.8671875,0.125
11.875,0.145
11.8828125,0.185
11.890625,0.235
11.8984375,0.285
11.90625,0.335
11.9140625,0.395
11.921875,0.465
11.9296875,0.545
11.9375,0.635
11.9453125,0.725
11.953125,0.785
11.9609375,0.815
11.96875,0.825
11.9765625,0.785
11.984375,0.735
11.9921875,0.635
12,0.485
12.0078125,0.305
12.015625,0.145
12.0234375,0.015
12.03125,-0.105
12.0390625,-0.205
12.046875,-0.275
12.0546875,-0.315
12.0625,-0.345
12.0703125,-0.375
12.078125,-0.375
12.0859375,-0.365
12.09375,-0.355
12.1015625,-0.355
12.109375,-0.345
12.1171875,-0.325
12.125,-0.315
12.1328125,-0.285
12.140625,-0.285
12.1484375,-0.275
12.15625,-0.255
12.1640625,-0.235
12.171875,-0.255
12.1796875,-0.245
12.1875,-0.245
12.1953125,-0.255
12.203125,-0.255
12.2109375,-0.265
12.21875,-0.265
12.2265625,-0.275
12.234375,-0.295
12.2421875,-0.285
12.25,-0.275
12.2578125,-0.275
12.265625,-0.285
12.2734375,-0.285
12.28125,-0.285
12.2890625,-0.285
12.296875,-0.285
12.3046875,-0.285
12.3125,-0.285
12.3203125,-0.275
12.328125,-0.265
12.3359375,-0.265
12.34375,-0.265
12.3515625,-0.255
12.359375,-0.255
12.3671875,-0.175
12.375,-0.145
12.3828125,-0.165
12.390625,-0.125
12.3984375,-0.105
12.40625,-0.165
12.4140625,-0.175
12.421875,-0.215
12.4296875,-0.215
12.4375,-0.255
12.4453125,-0.265
12.453125,-0.275
12.4609375,-0.275
12.46875,-0.285
12.4765625,-0.265
12.484375,-0.245
12.4921875,-0.255
12.5,-0.235
12.5078125,-0.265
12.515625,-0.295
12.5234375,0.345
12.53125,1.835
12.5390625,2.355
12.546875,0.165
12.5546875,-1.535
12.5625,-1.115
12.5703125,-0.735
12.578125,-0.375
12.5859375,-0.155
12.59375,-0.095
12.6015625,-0.055
12.609375,-0.045
12.6171875,-0.005
12.625,0.005
12.6328125,0.025
12.640625,0.045
12.6484375,0.075
12.65625,0.105
12.6640625,0.125
12.671875,0.165
12.6796875,0.205
12.6875,0.235
12.6953125,0.285
12.703125,0.345
12.7109375,0.405
12.71875,0.475
12.7265625,0.565
12.734375,0.645
12.7421875,0.745
12.75,0.825
12.7578125,0.865
12.765625,0.895
12.7734375,0.895
12.78125,0.855
12.7890625,0.745
12.796875,0.595
12.8046875,0.425
12.8125,0.255
12.8203125,0.095
12.828125,-0.045
12.8359375,-0.155
12.84375,-0.235
12.8515625,-0.285
12.859375,-0.335
12.8671875,-0.355
12.875,-0.355
12.8828125,-0.355
12.890625,-0.365
12.8984375,-0.355
12.90625,-0.345
12.9140625,-0.335
12.921875,-0.325
12.9296875,-0.305
12.9375,-0.295
12.9453125,-0.285
12.953125,-0.275
12.9609375,-0.265
12.96875,-0.265
12.9765625,-0.245
12.984375,-0.265
12.9921875,-0.265
13,-0.265
13.0078125,-0.285
13.015625,-0.295
13.0234375,-0.295
13.03125,-0.295
13.0390625,-0.295
13.046875,-0.305
13.0546875,-0.295
13.0625,-0.295
13.0703125,-0.305
13.078125,-0.305
13.0859375,-0.305
13.09375,-0.305
13.1015625,-0.295
13.109375,-0.305
13.1171875,-0.285
13.125,-0.295
13.1328125,-0.285
13.140625,-0.295
13.1484375,-0.275
13.15625,-0.225
13.1640625,-0.165
13.171875,-0.165
13.1796875,-0.165
13.1875,-0.135
13.1953125,-0.195
13.203125,-0.235
13.2109375,-0.225
13.21875,-0.255
13.2265625,-0.265
13.234375,-0.305
13.2421875,-0.305
13.25,-0.325
13.2578125,-0.315
13.265625,-0.305
13.2734375,-0.295
13.28125,-0.305
13.2890625,-0.285
13.296875,-0.275
13.3046875,-0.315
13.3125,-0.195
13.3203125,0.995
13.328125,2.235
13.3359375,2.215
13.34375,-0.805
13.3515625,-1.515
13.359375,-1.045
13.3671875,-0.635
13.375,-0.325
13.3828125,-0.185
13.390625,-0.135
13.3984375,-0.115
13.40625,-0.085
13.4140625,-0.055
13.421875,-0.035
13.4296875,-0.015
13.4375,0.005
13.4453125,0.025
13.453125,0.065
13.4609375,0.095
13.46875,0.115
13.4765625,0.165
13.484375,0.205
13.4921875,0.255
13.5,0.305
13.5078125,0.385
13.515625,0.465
13.5234375,0.545
13.53125,0.625
13.5390625,0.735
13.546875,0.805
13.5546875,0.865
13.5625,0.875
13.5703125,0.855
13.578125,0.805
13.5859375,0.695
13.59375,0.545
13.6015625,0.365
13.609375,0.195
13.6171875,0.035
13.625,-0.105
13.6328125,-0.205
13.640625,-0.285
13.6484375,-0.335
13.65625,-0.385
13.6640625,-0.415
13.671875,-0.425
13.6796875,-0.415
13.6875,-0.425
13.6953125,-0.425
13.703125,-0.405
13.7109375,-0.395
13.71875,-0.375
13.7265625,-0.355
13.734375,-0.335
13.7421875,-0.325
13.75,-0.295
13.7578125,-0.285
13.765625,-0.285
13.7734375,-0.285
13.78125,-0.275
13.7890625,-0.285
13.796875,-0.305
13.8046875,-0.305
13.8125,-0.325
13.8203125,-0.315
13.828125,-0.325
13.8359375,-0.315
13.84375,-0.325
13.8515625,-0.325
13.859375,-0.325
13.8671875,-0.325
13.875,-0.315
13.8828125,-0.315
13.890625,-0.315
13.8984375,-0.305
13.90625,-0.295
13.9140625,-0.295
13.921875,-0.305
13.9296875,-0.285
13.9375,-0.285
13.9453125,-0.275
13.953125,-0.235
13.9609375,-0.165
13.96875,-0.145
13.9765625,-0.165
13.984375,-0.115
13.9921875,-0.165
14,-0.195
14.0078125,-0.205
14.015625,-0.245
14.0234375,-0.235
14.03125,-0.275
14.0390625,-0.295
14.046875,-0.305
14.0546875,-0.295
14.0625,-0.285
14.0703125,-0.295
14.078125,-0.285
14.0859375,-0.275
14.09375,-0.265
14.1015625,-0.275
14.109375,-0.325
14.1171875,-0.045
14.125,1.275
14.1328125,2.245
14.140625,1.595
14.1484375,-1.245
14.15625,-1.345
14.1640625,-0.885
14.171875,-0.475
14.1796875,-0.215
14.1875,-0.145
14.1953125,-0.125
14.203125,-0.095
14.2109375,-0.065
14.21875,-0.055
14.2265625,-0.035
14.234375,-0.005
14.2421875,0.015
14.25,0.045
14.2578125,0.065
14.265625,0.095
14.2734375,0.135
14.28125,0.165
14.2890625,0.215
14.296875,0.265
14.3046875,0.325
14.3125,0.395
14.3203125,0.475
14.328125,0.565
14.3359375,0.665
14.34375,0.735
14.3515625,0.795
14.359375,0.815
14.3671875,0.825
14.375,0.795
14.3828125,0.725
14.390625,0.615
14.3984375,0.455
14.40625,0.275
14.4140625,0.105
14.421875,-0.035
14.4296875,-0.155
14.4375,-0.235
14.4453125,-0.305
14.453125,-0.345
14.4609375,-0.365
14.46875,-0.385
14.4765625,-0.385
14.484375,-0.395
14.4921875,-0.385
14.5,-0.375
14.5078125,-0.365
14.515625,-0.355
14.5234375,-0.335
14.53125,-0.325
14.5390625,-0.325
14.546875,-0.305
14.5546875,-0.285
14.5625,-0.285
14.5703125,-0.285
14.578125,-0.295
14.5859375,-0.285
14.59375,-0.295
14.6015625,-0.295
14.609375,-0.305
14.6171875,-0.315
14.625,-0.325
14.6328125,-0.315
14.640625,-0.325
14.6484375,-0.325
14.65625,-0.325
14.6640625,-0.325
14.671875,-0.325
14.6796875,-0.325
14.6875,-0.305
14.6953125,-0.315
14.703125,-0.325
14.7109375,-0.305
14.71875,-0.295
14.7265625,-0.315
14.734375,-0.295
14.7421875,-0.295
14.75,-0.285
14.7578125,-0.285
14.765625,-0.275
14.7734375,-0.175
14.78125,-0.135
14.7890625,-0.155
14.796875,-0.135
14.8046875,-0.125
14.8125,-0.185
14.8203125,-0.195
14.828125,-0.245
14.8359375,-0.235
14.84375,-0.275
14.8515625,-0.305
14.859375,-0.325
14.8671875,-0.305
14.875,-0.305
14.8828125,-0.295
14.890625,-0.285
14.8984375,-0.275
14.90625,-0.255
14.9140625,-0.265
14.921875,-0.295
14.9296875,-0.115
14.9375,1.175
14.9453125,2.335
14.953125,1.905
14.9609375,-1.075
14.96875,-1.365
14.9765625,-0.935
14.984375,-0.545
14.9921875,-0.245
15,-0.145
15.0078125,-0.115
15.015625,-0.085
15.0234375,-0.055
15.03125,-0.035
15.0390625,-0.025
15.046875,0.005
15.0546875,0.025
15.0625,0.055
15.0703125,0.075
15.078125,0.095
15.0859375,0.135
15.09375,0.185
15.1015625,0.225
15.109375,0.275
15.1171875,0.325
15.125,0.395
15.1328125,0.455
15.140625,0.535
15.1484375,0.615
15.15625,0.685
15.1640625,0.735
15.171875,0.765
15.1796875,0.765
15.1875,0.735
15.1953125,0.695
15.203125,0.575
15.2109375,0.445
15.21875,0.285
15.2265625,0.145
15.234375,0.005
15.2421875,-0.105
15.25,-0.185
15.2578125,-0.245
15.265625,-0.295
15.2734375,-0.325
15.28125,-0.335
15.2890625,-0.335
15.296875,-0.345
15.3046875,-0.335
15.3125,-0.335
15.3203125,-0.325
15.328125,-0.325
15.3359375,-0.295
15.34375,-0.275
15.3515625,-0.265
15.359375,-0.265
15.3671875,-0.255
15.375,-0.255
15.3828125,-0.245
15.390625,-0.255
15.3984375,-0.255
15.40625,-0.265
15.4140625,-0.265
15.421875,-0.275
15.4296875,-0.275
15.4375,-0.295
15.4453125,-0.295
15.453125,-0.295
15.4609375,-0.295
15.46875,-0.295
15.4765625,-0.305
15.484375,-0.305
15.4921875,-0.305
15.5,-0.305
15.5078125,-0.295
15.515625,-0.295
15.5234375,-0.275
15.53125,-0.215
15.5390625,-0.165
15.546875,-0.155
15.5546875,-0.125
15.5625,-0.105
15.5703125,-0.165
15.578125,-0.155
15.5859375,-0.205
15.59375,-0.235
15.6015625,-0.275
15.609375,-0.315
15.6171875,-0.325
15.625,-0.345
15.6328125,-0.335
15.640625,-0.335
15.6484375,-0.325
15.65625,-0.325
15.6640625,-0.315
15.671875,-0.305
15.6796875,-0.325
15.6875,-0.365
15.6953125,0.105
15.703125,1.635
15.7109375,2.385
15.71875,0.755
15.7265625,-1.585
15.734375,-1.245
15.7421875,-0.815
15.75,-0.425
15.7578125,-0.205
15.765625,-0.175
15.7734375,-0.125
15.78125,-0.105
15.7890625,-0.095
15.796875,-0.075
15.8046875,-0.045
15.8125,-0.025
15.8203125,0.005
15.828125,0.025
15.8359375,0.055
15.84375,0.085
15.8515625,0.125
15.859375,0.165
15.8671875,0.205
15.875,0.255
15.8828125,0.315
15.890625,0.385
15.8984375,0.475
15.90625,0.555
15.9140625,0.635
15.921875,0.695
15.9296875,0.745
15.9375,0.755
15.9453125,0.755
15.953125,0.705
15.9609375,0.605
15.96875,0.485
15.9765625,0.315
15.984375,0.145
15.9921875,0.005
16,-0.105
16.0078125,-0.185
16.015625,-0.265
16.0234375,-0.315
16.03125,-0.345
16.0390625,-0.355
16.046875,-0.365
16.0546875,-0.365
16.0625,-0.365
16.0703125,-0.355
16.078125,-0.345
16.0859375,-0.325
16.09375,-0.315
16.1015625,-0.315
16.109375,-0.295
16.1171875,-0.285
16.125,-0.275
16.1328125,-0.265
16.140625,-0.265
16.1484375,-0.265
16.15625,-0.275
16.1640625,-0.275
16.171875,-0.285
16.1796875,-0.285
16.1875,-0.295
16.1953125,-0.295
16.203125,-0.305
16.2109375,-0.295
16.21875,-0.295
16.2265625,-0.295
16.234375,-0.305
16.2421875,-0.295
16.25,-0.295
16.2578125,-0.275
16.265625,-0.225
16.2734375,-0.155
16.28125,-0.155
16.2890625,-0.105
16.296875,-0.105
16.3046875,-0.165
16.3125,-0.145
16.3203125,-0.205
16.328125,-0.235
16.3359375,-0.285
16.34375,-0.315
16.3515625,-0.345
16.359375,-0.345
16.3671875,-0.345
16.375,-0.355
16.3828125,-0.345
16.390625,-0.345
16.3984375,-0.335
16.40625,-0.325
16.4140625,-0.295
16.421875,-0.355
16.4296875,-0.225
16.4375,0.955
16.4453125,2.255
16.453125,2.025
16.4609375,-0.965
16.46875,-1.425
16.4765625,-1.005
16.484375,-0.575
16.4921875,-0.275
16.5,-0.185
16.5078125,-0.145
16.515625,-0.125
16.5234375,-0.095
16.53125,-0.075
16.5390625,-0.055
16.546875,-0.035
16.5546875,-0.005
16.5625,0.015
16.5703125,0.035
16.578125,0.055
16.5859375,0.095
16.59375,0.135
16.6015625,0.175
16.609375,0.225
16.6171875,0.275
16.625,0.335
16.6328125,0.415
16.640625,0.485
16.6484375,0.575
16.65625,0.635
16.6640625,0.685
16.671875,0.725
16.6796875,0.725
16.6875,0.695
16.6953125,0.635
16.703125,0.515
16.7109375,0.375
16.71875,0.215
16.7265625,0.075
16.734375,-0.055
16.7421875,-0.145
16.75,-0.225
16.7578125,-0.275
16.765625,-0.325
16.7734375,-0.335
16.78125,-0.355
16.7890625,-0.355
16.796875,-0.355
16.8046875,-0.335
16.8125,-0.335
16.8203125,-0.325
16.828125,-0.315
16.8359375,-0.295
16.84375,5
16.8515625,5
16.859375,5
16.8671875,5
16.875,5
16.8828125,5
16.890625,-0.275
16.8984375,-0.275
16.90625,-0.275
16.9140625,-0.295
16.921875,-0.295
16.9296875,-0.295
16.9375,-0.305
16.9453125,-0.305
16.953125,-0.305
16.9609375,-0.305
16.96875,-0.305
16.9765625,-0.315
16.984375,-0.305
16.9921875,-0.295
17,-0.295
17.0078125,-0.285
17.015625,-0.255
17.0234375,-0.215
17.03125,-0.165
17.0390625,-0.155
17.046875,-0.095
17.0546875,-0.145
17.0625,-0.155
17.0703125,-0.195
17.078125,-0.245
17.0859375,-0.265
17.09375,-0.305
17.1015625,-0.335
17.109375,-0.345
17.1171875,-0.335
17.125,-0.345
17.1328125,-0.335
17.140625,-0.335
17.1484375,-0.325
17.15625,-0.305
17.1640625,-0.305
17.171875,-0.335
17.1796875,-0.325
17.1875,0.335
17.1953125,1.895
17.203125,2.335
17.2109375,0.135
17.21875,-1.545
17.2265625,-1.175
17.234375,-0.815
17.2421875,-0.455
17.25,-0.215
17.2578125,-0.155
17.265625,-0.125
17.2734375,-0.105
17.28125,-0.085
17.2890625,-0.055
17.296875,-0.025
17.3046875,-0.005
17.3125,0.015
17.3203125,0.045
17.328125,0.075
17.3359375,0.105
17.34375,0.145
17.3515625,0.195
17.359375,0.235
17.3671875,0.295
17.375,0.345
17.3828125,0.425
17.390625,0.505
17.3984375,0.595
17.40625,0.675
17.4140625,0.765
17.421875,0.805
17.4296875,0.835
17.4375,0.815
17.4453125,0.785
17.453125,0.715
17.4609375,0.595
17.46875,0.415
17.4765625,0.245
17.484375,0.085
17.4921875,-0.045
17.5,-0.145
17.5078125,-0.235
17.515625,-0.285
17.5234375,-0.325
17.53125,-0.345
17.5390625,-0.345
17.546875,-0.355
17.5546875,-0.345
17.5625,-0.335
17.5703125,-0.325
17.578125,-0.305
17.5859375,-0.295
17.59375,-0.275
17.6015625,-0.265
17.609375,-0.265
17.6171875,-0.245
17.625,-0.245
17.6328125,-0.255
17.640625,-0.255
17.6484375,-0.255
17.65625,-0.265
17.6640625,-0.275
17.671875,-0.285
17.6796875,-0.285
17.6875,-0.295
17.6953125,-0.285
17.703125,-0.295
17.7109375,-0.295
17.71875,-0.285
17.7265625,-0.285
17.734375,-0.295
17.7421875,-0.285
17.75,-0.285
17.7578125,-0.275
17.765625,-0.225
17.7734375,-0.165
17.78125,-0.155
17.7890625,-0.095
17.796875,-0.085
17.8046875,-0.145
17.8125,-0.125
17.8203125,-0.185
17.828125,-0.205
17.8359375,-0.255
17.84375,-0.285
17.8515625,-0.295
17.859375,-0.305
17.8671875,-0.305
17.875,-0.305
17.8828125,-0.295
17.890625,-0.295
17.8984375,-0.285
17.90625,-0.265
17.9140625,-0.265
17.921875,-0.295
17.9296875,-0.205
17.9375,0.805
17.9453125,2.145
17.953125,2.215
17.9609375,-0.595
17.96875,-1.535
17.9765625,-1.085
17.984375,-0.725
17.9921875,-0.365
18,-0.185
18.0078125,-0.125
18.015625,-0.105
18.0234375,-0.065
18.03125,-0.045
18.0390625,-0.025
18.046875,-0.005
18.0546875,0.015
18.0625,0.045
18.0703125,0.075
18.078125,0.095
18.0859375,0.135
18.09375,0.185
18.1015625,0.225
18.109375,0.265
18.1171875,0.325
18.125,0.395
18.1328125,0.465
18.140625,0.545
18.1484375,0.635
18.15625,0.715
18.1640625,0.785
18.171875,0.825
18.1796875,0.845
18.1875,0.835
18.1953125,0.775
18.203125,0.665
18.2109375,0.525
18.21875,0.345
18.2265625,0.185
18.234375,0.025
18.2421875,-0.085
18.25,-0.195
18.2578125,-0.275
18.265625,-0.335
18.2734375,-0.355
18.28125,-0.385
18.2890625,-0.395
18.296875,-0.385
18.3046875,-0.375
18.3125,-0.365
18.3203125,-0.365
18.328125,-0.345
18.3359375,-0.335
18.34375,-0.325
18.3515625,-0.295
18.359375,-0.295
18.3671875,-0.285
18.375,-0.285
18.3828125,-0.265
18.390625,-0.285
18.3984375,-0.285
18.40625,-0.295
18.4140625,-0.305
18.421875,-0.315
18.4296875,-0.325
18.4375,-0.325
18.4453125,-0.325
18.453125,-0.335
18.4609375,-0.325
18.46875,-0.325
18.4765625,-0.325
18.484375,-0.335
18.4921875,-0.325
18.5,-0.325
18.5078125,-0.315
18.515625,-0.325
18.5234375,-0.325
18.53125,-0.305
18.5390625,-0.305
18.546875,-0.315
18.5546875,-0.295
18.5625,-0.305
18.5703125,-0.295
18.578125,-0.295
18.5859375,-0.215
18.59375,-0.165
18.6015625,-0.145
18.609375,-0.135
18.6171875,-0.105
18.625,-0.175
18.6328125,-0.175
18.640625,-0.235
18.6484375,-0.245
18.65625,-0.275
18.6640625,-0.315
18.671875,-0.345
18.6796875,-0.345
18.6875,-0.345
18.6953125,-0.345
18.703125,-0.345
18.7109375,-0.335
18.71875,-0.315
18.7265625,-0.315
18.734375,-0.305
18.7421875,-0.345
18.75,-0.155
18.7578125,1.195
18.765625,2.235
18.7734375,1.735
18.78125,-1.315
18.7890625,-1.455
18.796875,-0.935
18.8046875,-0.495
18.8125,-0.245
18.8203125,-0.185
18.828125,-0.155
18.8359375,-0.125
18.84375,-0.115
18.8515625,-0.095
18.859375,-0.065
18.8671875,-0.045
18.875,-0.025
18.8828125,0.005
18.890625,0.025
18.8984375,0.055
18.90625,0.095
18.9140625,0.135
18.921875,0.165
18.9296875,0.225
18.9375,0.285
18.9453125,0.345
18.953125,0.425
18.9609375,0.495
18.96875,0.585
18.9765625,0.655
18.984375,0.715
18.9921875,0.755
19,0.755
19.0078125,0.725
19.015625,0.675
19.0234375,0.585
19.03125,0.445
19.0390625,0.285
19.046875,0.125
19.0546875,-0.025
19.0625,-0.135
19.0703125,-0.225
19.078125,-0.305
19.0859375,-0.345
19.09375,-0.375
19.1015625,-0.385
19.109375,-0.395
19.1171875,-0.395
19.125,-0.385
19.1328125,-0.375
19.140625,-0.375
19.1484375,-0.355
19.15625,-0.335
19.1640625,-0.335
19.171875,-0.325
19.1796875,-0.315
19.1875,-0.305
19.1953125,-0.295
19.203125,-0.295
19.2109375,-0.295
19.21875,-0.305
19.2265625,-0.315
19.234375,-0.335
19.2421875,-0.325
19.25,-0.335
19.2578125,-0.345
19.265625,-0.355
19.2734375,-0.345
19.28125,-0.345
19.2890625,-0.345
19.296875,-0.355
19.3046875,-0.355
19.3125,-0.355
19.3203125,-0.345
19.328125,-0.345
19.3359375,-0.335
19.34375,-0.335
19.3515625,-0.325
19.359375,-0.335
19.3671875,-0.325
19.375,-0.325
19.3828125,-0.325
19.390625,-0.325
19.3984375,-0.315
19.40625,-0.305
19.4140625,-0.305
19.421875,-0.295
19.4296875,-0.245
19.4375,-0.185
19.4453125,-0.145
19.453125,-0.185
19.4609375,-0.135
19.46875,-0.175
19.4765625,-0.215
19.484375,-0.235
19.4921875,-0.275
19.5,-0.285
19.5078125,-0.325
19.515625,-0.335
19.5234375,-0.325
19.53125,-0.335
19.5390625,-0.325
19.546875,-0.325
19.5546875,-0.325
19.5625,-0.315
19.5703125,-0.295
19.578125,-0.305
19.5859375,-0.345
19.59375,0.095
19.6015625,1.685
19.609375,2.305
19.6171875,0.555
19.625,-1.495
19.6328125,-1.235
19.640625,-0.815
19.6484375,-0.425
19.65625,-0.215
19.6640625,-0.165
19.671875,-0.125
19.6796875,-0.115
19.6875,-0.075
19.6953125,-0.045
19.703125,-0.045
19.7109375,-0.015
19.71875,0.005
19.7265625,0.045
19.734375,0.065
19.7421875,0.095
19.75,0.135
19.7578125,0.175
19.765625,0.205
19.7734375,0.255
19.78125,0.315
19.7890625,0.385
19.796875,0.435
19.8046875,0.505
19.8125,0.575
19.8203125,0.625
19.828125,0.655
19.8359375,0.675
19.84375,0.645
19.8515625,0.595
19.859375,0.515
19.8671875,0.405
19.875,0.265
19.8828125,0.145
19.890625,0.015
19.8984375,-0.085
19.90625,-0.165
19.9140625,-0.225
19.921875,-0.285
19.9296875,-0.315
19.9375,-0.335
19.9453125,-0.345
19.953125,-0.345
19.9609375,-0.345
19.96875,-0.345
19.9765625,-0.325
19.984375,-0.335
19.9921875,-0.315
20,-0.305
20.0078125,-0.285
20.015625,-0.275
20.0234375,-0.255
20.03125,-0.255
20.0390625,-0.255
20.046875,-0.265
20.0546875,-0.265
20.0625,-0.265
20.0703125,-0.275
20.078125,-0.285
20.0859375,-0.285
20.09375,-0.295
20.1015625,-0.295
20.109375,-0.305
20.1171875,-0.295
20.125,-0.295
20.1328125,-0.295
20.140625,-0.305
20.1484375,-0.295
20.15625,-0.295
20.1640625,-0.285
20.171875,-0.295
20.1796875,-0.285
20.1875,-0.285
20.1953125,-0.275
20.203125,-0.275
20.2109375,-0.275
20.21875,-0.275
20.2265625,-0.275
20.234375,-0.265
20.2421875,-0.245
20.25,-0.255
20.2578125,-0.255
20.265625,-0.245
20.2734375,-0.215
20.28125,-0.135
20.2890625,-0.115
20.296875,-0.155
20.3046875,-0.085
20.3125,-0.105
20.3203125,-0.155
20.328125,-0.175
20.3359375,-0.205
20.34375,-0.215
20.3515625,-0.235
20.359375,-0.265
20.3671875,-0.265
20.375,-0.275
20.3828125,-0.265
20.390625,-0.265
20.3984375,-0.245
20.40625,-0.235
20.4140625,-0.225
20.421875,-0.225
20.4296875,-0.295
20.4375,0.085
20.4453125,1.585
20.453125,2.395
20.4609375,0.685
20.46875,-1.485
20.4765625,-1.155
20.484375,-0.785
20.4921875,-0.425
20.5,-0.165
20.5078125,-0.085
20.515625,-0.055
20.5234375,-0.035
20.53125,0.005
20.5390625,0.015
20.546875,0.025
20.5546875,0.055
20.5625,0.085
20.5703125,0.105
20.578125,0.145
20.5859375,0.175
20.59375,0.205
20.6015625,0.245
20.609375,0.285
20.6171875,0.335
20.625,0.395
20.6328125,0.455
20.640625,0.535
20.6484375,0.615
20.65625,0.695
20.6640625,0.745
20.671875,0.775
20.6796875,0.795
20.6875,0.785
20.6953125,0.735
20.703125,0.665
20.7109375,0.545
20.71875,0.385
20.7265625,0.255
20.734375,0.095
20.7421875,-0.015
20.75,-0.105
20.7578125,-0.185
20.765625,-0.245
20.7734375,-0.275
20.78125,-0.295
20.7890625,-0.305
20.796875,-0.315
20.8046875,-0.295
20.8125,-0.285
20.8203125,-0.285
20.828125,-0.285
20.8359375,-0.265
20.84375,-0.245
20.8515625,-0.235
20.859375,-0.225
20.8671875,-0.215
20.875,-0.225
20.8828125,-0.215
20.890625,-0.215
20.8984375,-0.225
20.90625,-0.235
20.9140625,-0.235
20.921875,-0.245
20.9296875,-0.255
20.9375,-0.255
20.9453125,-0.255
20.953125,-0.265
20.9609375,-0.265
20.96875,-0.265
20.9765625,-0.265
20.984375,-0.265
20.9921875,-0.265
21,-0.255
21.0078125,-0.255
21.015625,-0.255
21.0234375,-0.265
21.03125,-0.255
21.0390625,-0.255
21.046875,-0.245
21.0546875,-0.245
21.0625,-0.245
21.0703125,-0.245
21.078125,-0.245
21.0859375,-0.235
21.09375,-0.235
21.1015625,-0.175
21.109375,-0.115
21.1171875,-0.105
21.125,-0.115
21.1328125,-0.075
21.140625,-0.125
21.1484375,-0.155
21.15625,-0.175
21.1640625,-0.215
21.171875,-0.225
21.1796875,-0.255
21.1875,-0.275
21.1953125,-0.265
21.203125,-0.255
21.2109375,-0.245
21.21875,-0.255
21.2265625,-0.245
21.234375,-0.235
21.2421875,-0.215
21.25,-0.255
21.2578125,-0.115
21.265625,1.025
21.2734375,2.305
21.28125,2.155
21.2890625,-0.965
21.296875,-1.385
21.3046875,-0.965
21.3125,-0.575
21.3203125,-0.235
21.328125,-0.105
21.3359375,-0.065
21.34375,-0.045
21.3515625,-0.015
21.359375,0.005
21.3671875,0.035
21.375,0.055
21.3828125,0.085
21.390625,0.105
21.3984375,0.145
21.40625,0.165
21.4140625,0.205
21.421875,0.245
21.4296875,0.295
21.4375,0.355
21.4453125,0.415
21.453125,0.495
21.4609375,0.565
21.46875,0.645
21.4765625,0.725
21.484375,0.805
21.4921875,0.845
21.5,0.865
21.5078125,0.855
21.515625,0.815
21.5234375,0.725
21.53125,0.605
21.5390625,0.445
21.546875,0.265
21.5546875,0.125
21.5625,-0.005
21.5703125,-0.115
21.578125,-0.215
21.5859375,-0.275
21.59375,-0.325
21.6015625,-0.345
21.609375,-0.355
21.6171875,-0.365
21.625,-0.375
21.6328125,-0.365
21.640625,-0.355
21.6484375,-0.335
21.65625,-0.325
21.6640625,-0.305
21.671875,-0.295
21.6796875,-0.275
21.6875,-0.255
21.6953125,-0.255
21.703125,-0.255
21.7109375,-0.245
21.71875,-0.245
21.7265625,-0.255
21.734375,-0.265
21.7421875,-0.265
21.75,-0.275
21.7578125,-0.275
21.765625,-0.275
21.7734375,-0.285
21.78125,-0.275
21.7890625,-0.285
21.796875,-0.285
21.8046875,-0.275
21.8125,-0.285
21.8203125,-0.275
21.828125,-0.275
21.8359375,-0.275
21.84375,-0.275
21.8515625,-0.275
21.859375,-0.275
21.8671875,-0.275
21.875,-0.275
21.8828125,-0.275
21.890625,-0.275
21.8984375,-0.265
21.90625,-0.265
21.9140625,-0.265
21.921875,-0.265
21.9296875,-0.255
21.9375,-0.255
21.9453125,-0.245
21.953125,-0.245
21.9609375,-0.215
21.96875,-0.145
21.9765625,-0.115
21.984375,-0.145
21.9921875,-0.105
22,-0.125
22.0078125,-0.165
22.015625,-0.185
22.0234375,-0.215
22.03125,-0.225
22.0390625,-0.265
22.046875,-0.275
22.0546875,-0.285
22.0625,-0.275
22.0703125,-0.275
22.078125,-0.265
22.0859375,-0.255
22.09375,-0.245
22.1015625,-0.235
22.109375,-0.265
22.1171875,-0.185
22.125,1.015
22.1328125,2.255
22.140625,1.995
22.1484375,-1.165
22.15625,-1.435
22.1640625,-0.925
22.171875,-0.495
22.1796875,-0.185
22.1875,-0.105
22.1953125,-0.085
22.203125,-0.065
22.2109375,-0.035
22.21875,-0.015
22.2265625,0.005
22.234375,0.025
22.2421875,0.055
22.25,0.075
22.2578125,0.105
22.265625,0.125
22.2734375,0.165
22.28125,0.205
22.2890625,0.245
22.296875,0.285
22.3046875,0.345
22.3125,0.415
22.3203125,0.475
22.328125,0.555
22.3359375,0.635
22.34375,0.725
22.3515625,0.785
22.359375,0.825
22.3671875,0.855
22.375,0.845
22.3828125,0.795
22.390625,0.695
22.3984375,0.565
22.40625,0.395
22.4140625,0.225
22.421875,0.075
22.4296875,-0.055
22.4375,-0.155
22.4453125,-0.245
22.453125,-0.305
22.4609375,-0.335
22.46875,-0.375
22.4765625,-0.385
22.484375,-0.395
22.4921875,-0.385
22.5,-0.385
22.5078125,-0.365
22.515625,-0.365
22.5234375,-0.345
22.53125,-0.325
22.5390625,-0.315
22.546875,-0.295
22.5546875,-0.285
22.5625,-0.275
22.5703125,-0.275
22.578125,-0.265
22.5859375,-0.275
22.59375,-0.275
22.6015625,-0.285
22.609375,-0.295
22.6171875,-0.295
22.625,-0.305
22.6328125,-0.305
22.640625,-0.325
22.6484375,-0.325
22.65625,-0.315
22.6640625,-0.315
22.671875,-0.325
22.6796875,-0.325
22.6875,-0.325
22.6953125,-0.315
22.703125,-0.315
22.7109375,-0.315
22.71875,-0.305
22.7265625,-0.305
22.734375,-0.305
22.7421875,-0.305
22.75,-0.295
22.7578125,-0.295
22.765625,-0.295
22.7734375,-0.285
22.78125,-0.285
22.7890625,-0.285
22.796875,-0.275
22.8046875,-0.285
22.8125,-0.275
22.8203125,-0.265
22.828125,-0.265
22.8359375,-0.265
22.84375,-0.255
22.8515625,-0.255
22.859375,-0.195
22.8671875,-0.135
22.875,-0.125
22.8828125,-0.145
22.890625,-0.115
22.8984375,-0.165
22.90625,-0.185
22.9140625,-0.225
22.921875,-0.235
22.9296875,-0.255
22.9375,-0.295
22.9453125,-0.295
22.953125,-0.285
22.9609375,-0.285
22.96875,-0.275
22.9765625,-0.275
22.984375,-0.265
22.9921875,-0.255
23,-0.255
23.0078125,-0.295
23.015625,-0.005
23.0234375,1.435
23.03125,2.305
23.0390625,1.645
23.046875,-1.335
23.0546875,-1.395
23.0625,-0.915
23.0703125,-0.485
23.078125,-0.215
23.0859375,-0.135
23.09375,-0.095
23.1015625,-0.085
23.109375,-0.055
23.1171875,-0.035
23.125,-0.015
23.1328125,0.005
23.140625,0.025
23.1484375,0.055
23.15625,0.085
23.1640625,0.105
23.171875,0.135
23.1796875,0.175
23.1875,0.215
23.1953125,0.265
23.203125,0.315
23.2109375,0.375
23.21875,0.445
23.2265625,0.525
23.234375,0.595
23.2421875,0.675
23.25,0.725
23.2578125,0.775
23.265625,0.775
23.2734375,0.765
23.28125,0.715
23.2890625,0.625
23.296875,0.505
23.3046875,0.355
23.3125,0.195
23.3203125,0.055
23.328125,-0.065
23.3359375,-0.165
23.34375,-0.245
23.3515625,-0.295
23.359375,-0.335
23.3671875,-0.355
23.375,-0.375
23.3828125,-0.375
23.390625,-0.375
23.3984375,-0.365
23.40625,-0.355
23.4140625,-0.345
23.421875,-0.335
23.4296875,-0.305
23.4375,-0.305
23.4453125,-0.285
23.453125,-0.275
23.4609375,-0.265
23.46875,-0.265
23.4765625,-0.265
23.484375,-0.265
23.4921875,-0.265
23.5,-0.285
23.5078125,-0.295
23.515625,-0.295
23.5234375,-0.295
23.53125,-0.305
23.5390625,-0.315
23.546875,-0.315
23.5546875,-0.325
23.5625,-0.305
23.5703125,-0.315
23.578125,-0.305
23.5859375,-0.325
23.59375,-0.305
23.6015625,-0.305
23.609375,-0.305
23.6171875,-0.305
23.625,-0.305
23.6328125,-0.305
23.640625,-0.295
23.6484375,-0.295
23.65625,-0.285
23.6640625,-0.285
23.671875,-0.285
23.6796875,-0.285
23.6875,-0.275
23.6953125,-0.275
23.703125,-0.285
23.7109375,-0.275
23.71875,-0.265
23.7265625,-0.265
23.734375,-0.265
23.7421875,-0.255
23.75,-0.255
23.7578125,-0.225
23.765625,-0.155
23.7734375,-0.115
23.78125,-0.155
23.7890625,-0.085
23.796875,-0.125
23.8046875,-0.175
23.8125,-0.185
23.8203125,-0.215
23.828125,-0.235
23.8359375,-0.265
23.84375,-0.275
23.8515625,-0.285
23.859375,-0.285
23.8671875,-0.285
23.875,-0.275
23.8828125,-0.275
23.890625,-0.265
23.8984375,-0.245
23.90625,-0.265
23.9140625,-0.315
23.921875,0.245
23.9296875,1.755
23.9375,2.315
23.9453125,0.295
23.953125,-1.455
23.9609375,-1.115
23.96875,-0.695
23.9765625,-0.355
23.984375,-0.165
23.9921875,-0.125
24,-0.105
24.0078125,-0.085
24.015625,-0.065
24.0234375,-0.035
24.03125,-0.015
24.0390625,0.005
24.046875,0.015
24.0546875,0.045
24.0625,0.075
24.0703125,0.105
24.078125,0.135
24.0859375,0.175
24.09375,0.225
24.1015625,0.255
24.109375,0.315
24.1171875,0.375
24.125,0.445
24.1328125,0.515
24.140625,0.585
24.1484375,0.655
24.15625,0.695
24.1640625,0.705
24.171875,0.705
24.1796875,0.675
24.1875,0.625
24.1953125,0.515
24.203125,0.385
24.2109375,0.255
24.21875,0.115
24.2265625,-0.025
24.234375,-0.125
24.2421875,-0.205
24.25,-0.275
24.2578125,-0.325
24.265625,-0.345
24.2734375,-0.365
24.28125,-0.375
24.2890625,-0.365
24.296875,-0.375
24.3046875,-0.355
24.3125,-0.345
24.3203125,-0.345
24.328125,-0.325
24.3359375,-0.315
24.34375,-0.305
24.3515625,-0.285
24.359375,-0.285
24.3671875,-0.275
24.375,-0.265
24.3828125,-0.275
24.390625,-0.275
24.3984375,-0.275
24.40625,-0.295
24.4140625,-0.305
24.421875,-0.305
24.4296875,-0.305
24.4375,-0.325
24.4453125,-0.325
24.453125,-0.325
24.4609375,-0.325
24.46875,-0.325
24.4765625,-0.315
24.484375,-0.325
24.4921875,-0.315
24.5,-0.325
24.5078125,-0.325
24.515625,-0.305
24.5234375,-0.295
24.53125,-0.305
24.5390625,-0.305
24.546875,-0.295
24.5546875,-0.285
24.5625,-0.285
24.5703125,-0.275
24.578125,-0.275
24.5859375,-0.275
24.59375,-0.275
24.6015625,-0.275
24.609375,-0.275
24.6171875,-0.255
24.625,-0.255
24.6328125,-0.265
24.640625,-0.215
24.6484375,-0.145
24.65625,-0.135
24.6640625,-0.155
24.671875,-0.105
24.6796875,-0.125
24.6875,-0.165
24.6953125,-0.195
24.703125,-0.225
24.7109375,-0.225
24.71875,-0.255
24.7265625,-0.275
24.734375,-0.275
24.7421875,-0.265
24.75,-0.265
24.7578125,-0.255
24.765625,-0.245
24.7734375,-0.235
24.78125,-0.235
24.7890625,-0.275
24.796875,-0.305
24.8046875,0.485
24.8125,1.965
24.8203125,2.305
24.828125,0.055
24.8359375,-1.375
24.84375,-1.055
24.8515625,-0.715
24.859375,-0.375
24.8671875,-0.155
24.875,-0.105
24.8828125,-0.065
24.890625,-0.045
24.8984375,-0.015
24.90625,-0.005
24.9140625,0.025
24.921875,0.045
24.9296875,0.065
24.9375,0.085
24.9453125,0.125
24.953125,0.145
24.9609375,0.185
24.96875,0.215
24.9765625,0.255
24.984375,0.305
24.9921875,0.365
25,0.425
25.0078125,0.495
25.015625,0.585
25.0234375,0.665
25.03125,0.735
25.0390625,0.775
25.046875,0.795
25.0546875,0.795
25.0625,0.765
25.0703125,0.705
25.078125,0.585
25.0859375,0.445
25.09375,0.285
25.1015625,0.115
25.109375,-0.005
25.1171875,-0.095
25.125,-0.185
25.1328125,-0.245
25.140625,-0.275
25.1484375,-0.305
25.15625,-0.325
25.1640625,-0.325
25.171875,-0.325
25.1796875,-0.325
25.1875,-0.305
25.1953125,-0.305
25.203125,-0.285
25.2109375,-0.265
25.21875,-0.265
25.2265625,-0.245
25.234375,-0.245
25.2421875,-0.235
25.25,-0.235
25.2578125,-0.235
25.265625,-0.245
25.2734375,-0.245
25.28125,-0.255
25.2890625,-0.255
25.296875,-0.265
25.3046875,-0.265
25.3125,-0.275
25.3203125,-0.275
25.328125,-0.285
25.3359375,-0.285
25.34375,-0.275
25.3515625,-0.275
25.359375,-0.275
25.3671875,-0.275
25.375,-0.275
25.3828125,-0.275
25.390625,-0.275
25.3984375,-0.275
25.40625,-0.265
25.4140625,-0.265
25.421875,-0.265
25.4296875,-0.265
25.4375,-0.265
25.4453125,-0.255
25.453125,-0.255
25.4609375,-0.245
25.46875,-0.245
25.4765625,-0.235
25.484375,-0.245
25.4921875,-0.235
25.5,-0.195
25.5078125,-0.135
25.515625,-0.125
25.5234375,-0.135
25.53125,-0.085
25.5390625,-0.135
25.546875,-0.165
25.5546875,-0.185
25.5625,-0.205
25.5703125,-0.215
25.578125,-0.255
25.5859375,-0.255
25.59375,-0.255
25.6015625,-0.255
25.609375,-0.255
25.6171875,-0.245
25.625,-0.245
25.6328125,-0.225
25.640625,-0.225
25.6484375,-0.265
25.65625,-0.165
25.6640625,0.845
25.671875,2.185
25.6796875,2.265
25.6875,-0.575
25.6953125,-1.405
25.703125,-0.985
25.7109375,-0.605
25.71875,-0.255
25.7265625,-0.115
25.734375,-0.085
25.7421875,-0.045
25.75,-0.025
25.7578125,0.005
25.765625,0.015
25.7734375,0.045
25.78125,0.065
25.7890625,0.085
25.796875,0.115
25.8046875,0.145
25.8125,0.165
25.8203125,0.205
25.828125,0.245
25.8359375,0.295
25.84375,0.345
25.8515625,0.415
25.859375,0.485
25.8671875,0.565
25.875,0.655
25.8828125,0.745
25.890625,0.815
25.8984375,0.855
25.90625,0.875
25.9140625,0.865
25.921875,0.805
25.9296875,0.715
25.9375,0.575
25.9453125,0.415
25.953125,0.235
25.9609375,0.085
25.96875,-0.045
25.9765625,-0.165
25.984375,-0.245
25.9921875,-0.295
26,-0.335
26.0078125,-0.365
26.015625,-0.375
26.0234375,-0.375
26.03125,-0.375
26.0390625,-0.375
26.046875,-0.365
26.0546875,-0.345
26.0625,-0.335
26.0703125,-0.325
26.078125,-0.305
26.0859375,-0.285
26.09375,-0.275
26.1015625,-0.265
26.109375,-0.275
26.1171875,-0.265
26.125,-0.255
26.1328125,-0.275
26.140625,-0.285
26.1484375,-0.285
26.15625,-0.295
26.1640625,-0.295
26.171875,-0.305
26.1796875,-0.305
26.1875,-0.305
26.1953125,-0.305
26.203125,-0.315
26.2109375,-0.305
26.21875,-0.315
26.2265625,-0.325
26.234375,-0.325
26.2421875,-0.315
26.25,-0.315
26.2578125,-0.315
26.265625,-0.315
26.2734375,-0.305
26.28125,-0.305
26.2890625,-0.315
26.296875,-0.305
26.3046875,-0.295
26.3125,-0.305
26.3203125,-0.295
26.328125,-0.295
26.3359375,-0.285
26.34375,-0.285
26.3515625,-0.285
26.359375,-0.285
26.3671875,-0.275
26.375,-0.275
26.3828125,-0.275
26.390625,-0.225
26.3984375,-0.155
26.40625,-0.145
26.4140625,-0.165
26.421875,-0.135
26.4296875,-0.175
26.4375,-0.205
26.4453125,-0.225
26.453125,-0.255
26.4609375,-0.255
26.46875,-0.295
26.4765625,-0.305
26.484375,-0.305
26.4921875,-0.305
26.5,-0.305
26.5078125,-0.295
26.515625,-0.285
26.5234375,-0.275
26.53125,-0.265
26.5390625,-0.295
26.546875,-0.235
26.5546875,0.785
26.5625,2.155
26.5703125,2.215
26.578125,-0.765
26.5859375,-1.525
26.59375,-1.025
26.6015625,-0.605
26.609375,-0.295
26.6171875,-0.165
26.625,-0.145
26.6328125,-0.105
26.640625,-0.085
26.6484375,-0.065
26.65625,-0.035
26.6640625,-0.015
26.671875,0.005
26.6796875,0.035
26.6875,0.055
26.6953125,0.085
26.703125,0.115
26.7109375,0.155
26.71875,0.195
26.7265625,0.235
26.734375,0.295
26.7421875,0.355
26.75,0.425
26.7578125,0.505
26.765625,0.605
26.7734375,0.685
26.78125,0.755
26.7890625,0.815
26.796875,0.825
26.8046875,0.805
26.8125,0.755
26.8203125,0.655
26.828125,0.505
26.8359375,0.335
26.84375,0.155
26.8515625,0.005
26.859375,-0.125
26.8671875,-0.225
26.875,-0.295
26.8828125,-0.365
26.890625,-0.405
26.8984375,-0.425
26.90625,-0.435
26.9140625,-0.445
26.921875,-0.445
26.9296875,-0.435
26.9375,-0.415
26.9453125,-0.415
26.953125,-0.395
26.9609375,-0.375
26.96875,-0.355
26.9765625,-0.345
26.984375,-0.345
26.9921875,-0.325
27,-0.315
27.0078125,-0.305
27.015625,-0.325
27.0234375,-0.315
27.03125,-0.325
27.0390625,-0.325
27.046875,-0.345
27.0546875,-0.345
27.0625,-0.345
27.0703125,-0.345
27.078125,-0.365
27.0859375,-0.355
27.09375,-0.355
27.1015625,-0.355
27.109375,-0.355
27.1171875,-0.345
27.125,-0.355
27.1328125,-0.355
27.140625,-0.355
27.1484375,-0.345
27.15625,-0.345
27.1640625,-0.345
27.171875,-0.345
27.1796875,-0.345
27.1875,-0.335
27.1953125,-0.335
27.203125,-0.335
27.2109375,-0.325
27.21875,-0.325
27.2265625,-0.325
27.234375,-0.325
27.2421875,-0.315
27.25,-0.305
27.2578125,-0.305
27.265625,-0.295
27.2734375,-0.295
27.28125,-0.285
27.2890625,-0.285
27.296875,-0.295
27.3046875,-0.225
27.3125,-0.155
27.3203125,-0.145
27.328125,-0.155
27.3359375,-0.125
27.34375,-0.175
27.3515625,-0.185
27.359375,-0.205
27.3671875,-0.275
27.375,-0.275
27.3828125,-0.305
27.390625,-0.315
27.3984375,-0.305
27.40625,-0.305
27.4140625,-0.285
27.421875,-0.295
27.4296875,-0.285
27.4375,-0.265
27.4453125,-0.275
27.453125,-0.305
27.4609375,-0.225
27.46875,0.825
27.4765625,2.155
27.484375,2.185
27.4921875,-0.655
27.5,-1.425
27.5078125,-1.035
27.515625,-0.585
27.5234375,-0.245
27.53125,-0.145
27.5390625,-0.085
27.546875,-0.135
27.5546875,-0.075
27.5625,-0.045
27.5703125,-0.025
27.578125,0.005
27.5859375,0.015
27.59375,0.075
27.6015625,0.055
27.609375,0.075
27.6171875,0.135
27.625,0.175
27.6328125,0.215
27.640625,0.265
27.6484375,0.305
27.65625,0.335
27.6640625,0.445
27.671875,0.475
27.6796875,0.565
27.6875,0.655
27.6953125,0.715
27.703125,0.775
27.7109375,0.775
27.71875,0.765
27.7265625,0.755
27.734375,0.655
27.7421875,0.545
27.75,0.455
27.7578125,0.265
27.765625,0.165
27.7734375,0.005
27.78125,-0.105
27.7890625,-0.195
27.796875,-0.245
27.8046875,-0.295
27.8125,-0.305
27.8203125,-0.355
27.828125,-0.345
27.8359375,-0.385
27.84375,-0.385
27.8515625,-0.365
27.859375,-0.355
27.8671875,-0.335
27.875,-0.325
27.8828125,-0.305
27.890625,-0.295
27.8984375,-0.285
27.90625,-0.255
27.9140625,-0.275
27.921875,-0.255
27.9296875,-0.255
27.9375,-0.255
27.9453125,-0.265
27.953125,-0.295
27.9609375,-0.265
27.96875,-0.275
27.9765625,-0.275
27.984375,-0.295
27.9921875,-0.275
28,-0.325
28.0078125,-0.265
28.015625,-0.285
28.0234375,-0.285
28.03125,-0.285
28.0390625,-0.275
28.046875,-0.275
28.0546875,-0.285
28.0625,-0.265
28.0703125,-0.275
28.078125,-0.255
28.0859375,-0.265
28.09375,-0.235
28.1015625,-0.225
28.109375,-0.235
28.1171875,-0.255
28.125,-0.245
28.1328125,-0.255
28.140625,-0.235
28.1484375,-0.235
28.15625,-0.245
28.1640625,-0.205
28.171875,-0.235
28.1796875,-0.225
28.1875,-0.245
28.1953125,-0.145
28.203125,-0.105
28.2109375,-0.115
28.21875,-0.065
28.2265625,-0.045
28.234375,-0.165
28.2421875,-0.145
28.25,-0.185
28.2578125,-0.215
28.265625,-0.245
28.2734375,-0.245
28.28125,-0.225
28.2890625,-0.225
28.296875,-0.265
28.3046875,-0.225
28.3125,-0.225
28.3203125,-0.175
28.328125,-0.245
28.3359375,-0.255
28.34375,-0.185
28.3515625,0.775
28.359375,2.225
28.3671875,2.215
28.375,-0.715
28.3828125,-1.355
28.390625,-0.985
28.3984375,-0.565
28.40625,-0.255
28.4140625,-0.085
28.421875,-0.075
28.4296875,-0.045
28.4375,-0.005
28.4453125,0.015
28.453125,0.025
28.4609375,0.055
28.46875,0.095
28.4765625,0.065
28.484375,0.105
28.4921875,0.145
28.5,0.185
28.5078125,0.195
28.515625,0.235
28.5234375,0.285
28.53125,0.355
28.5390625,0.385
28.546875,0.425
28.5546875,0.535
28.5625,0.625
28.5703125,0.675
28.578125,0.775
28.5859375,0.805
28.59375,0.865
28.6015625,0.865
28.609375,0.825
28.6171875,0.785
28.625,0.675
28.6328125,0.555
28.640625,0.375
28.6484375,0.215
28.65625,0.045
28.6640625,-0.045
28.671875,-0.135
28.6796875,-0.225
28.6875,-0.265
28.6953125,-0.315
28.703125,-0.325
28.7109375,-0.355
28.71875,-0.335
28.7265625,-0.345
28.734375,-0.335
28.7421875,-0.355
28.75,-0.315
28.7578125,-0.315
28.765625,-0.285
28.7734375,-0.265
28.78125,-0.265
28.7890625,-0.235
28.796875,-0.225
28.8046875,-0.255
28.8125,-0.235
28.8203125,-0.245
28.828125,-0.205
28.8359375,-0.255
28.84375,-0.235
28.8515625,-0.275
28.859375,-0.255
28.8671875,-0.275
28.875,-0.265
28.8828125,-0.295
28.890625,-0.275
28.8984375,-0.265
28.90625,-0.255
28.9140625,-0.275
28.921875,-0.305
28.9296875,-0.285
28.9375,-0.265
28.9453125,-0.265
28.953125,-0.285
28.9609375,-0.275
28.96875,-0.255
28.9765625,-0.245
28.984375,-0.275
28.9921875,-0.265
29,-0.245
29.0078125,-0.255
29.015625,-0.185
29.0234375,-0.155
29.03125,-0.155
29.0390625,-0.125
29.046875,-0.095
29.0546875,-0.165
29.0625,-0.195
29.0703125,-0.225
29.078125,-0.205
29.0859375,-0.275
29.09375,-0.295
29.1015625,-0.285
29.109375,-0.265
29.1171875,-0.265
29.125,-0.285
29.1328125,-0.275
29.140625,-0.275
29.1484375,-0.235
29.15625,-0.285
29.1640625,-0.105
29.171875,1.175
29.1796875,2.315
29.1875,1.665
29.1953125,-1.255
29.203125,-1.285
29.2109375,-0.875
29.21875,-0.535
29.2265625,-0.245
29.234375,-0.155
29.2421875,-0.115
29.25,-0.055
29.2578125,-0.075
29.265625,-0.065
29.2734375,-0.015
29.28125,0.025
29.2890625,0.055
29.296875,0.055
29.3046875,0.075
29.3125,0.125
29.3203125,0.145
29.328125,0.195
29.3359375,0.215
29.34375,0.275
29.3515625,0.315
29.359375,0.395
29.3671875,0.495
29.375,0.535
29.3828125,0.655
29.390625,0.725
29.3984375,0.815
29.40625,0.845
29.4140625,0.845
29.421875,0.825
29.4296875,0.765
29.4375,0.635
29.4453125,0.485
29.453125,0.305
29.4609375,0.135
29.46875,-0.025
29.4765625,-0.145
29.484375,-0.245
29.4921875,-0.305
29.5,-0.355
29.5078125,-0.395
29.515625,-0.395
29.5234375,-0.395
29.53125,-0.415
29.5390625,-0.405
29.546875,-0.435
29.5546875,-0.395
29.5625,-0.395
29.5703125,-0.375
29.578125,-0.375
29.5859375,-0.345
29.59375,-0.325
29.6015625,-0.305
29.609375,-0.305
29.6171875,-0.285
29.625,-0.295
29.6328125,-0.315
29.640625,-0.315
29.6484375,-0.305
29.65625,-0.315
29.6640625,-0.335
29.671875,-0.335
29.6796875,-0.345
29.6875,-0.345
29.6953125,-0.335
29.703125,-0.335
29.7109375,-0.355
29.71875,-0.345
29.7265625,-0.345
29.734375,-0.345
29.7421875,-0.335
29.75,-0.345
29.7578125,-0.345
29.765625,-0.325
29.7734375,-0.325
29.78125,-0.335
29.7890625,-0.355
29.796875,-0.325
29.8046875,-0.325
29.8125,-0.325
29.8203125,-0.325
29.828125,-0.285
29.8359375,-0.205
29.84375,-0.195
29.8515625,-0.205
29.859375,-0.185
29.8671875,-0.225
29.875,-0.245
29.8828125,-0.255
29.890625,-0.285
29.8984375,-0.295
29.90625,-0.325
29.9140625,-0.335
29.921875,-0.325
29.9296875,-0.325
29.9375,-0.335
29.9453125,-0.325
29.953125,-0.315
29.9609375,-0.305
29.96875,-0.285
29.9765625,-0.315
29.984375,-0.255
29.9921875,0.715
30,2.025
30.0078125,2.165
30.015625,-0.505
30.0234375,-1.575
30.03125,-1.115
30.0390625,-0.675
30.046875,-0.365
30.0546875,-0.205
30.0625,-0.165
30.0703125,-0.135
30.078125,-0.115
30.0859375,-0.095
30.09375,-0.065
30.1015625,-0.045
30.109375,-0.035
30.1171875,-0.005
30.125,0.025
30.1328125,0.035
30.140625,0.075
30.1484375,0.115
30.15625,0.155
30.1640625,0.205
30.171875,0.265
30.1796875,0.345
30.1875,0.425
30.1953125,0.495
30.203125,0.585
30.2109375,0.695
30.21875,0.745
30.2265625,0.785
30.234375,0.805
30.2421875,0.795
30.25,0.725
30.2578125,0.625
30.265625,0.455
30.2734375,0.285
30.28125,0.125
30.2890625,-0.035
30.296875,-0.165
30.3046875,-0.245
30.3125,-0.305
30.3203125,-0.385
30.328125,-0.425
30.3359375,-0.425
30.34375,-0.445
30.3515625,-0.445
30.359375,-0.445
30.3671875,-0.445
30.375,-0.425
30.3828125,-0.425
30.390625,-0.405
30.3984375,-0.385
30.40625,-0.365
30.4140625,-0.355
30.421875,-0.345
30.4296875,-0.325
30.4375,-0.325
30.4453125,-0.315
30.453125,-0.315
30.4609375,-0.295
30.46875,-0.335
30.4765625,-0.325
30.484375,-0.335
30.4921875,-0.335
30.5,-0.335
30.5078125,-0.335
30.515625,-0.345
30.5234375,-0.335
30.53125,-0.345
30.5390625,-0.345
30.546875,-0.345
30.5546875,-0.345
30.5625,-0.335
30.5703125,-0.325
30.578125,-0.355
30.5859375,-0.345
30.59375,-0.335
30.6015625,-0.335
30.609375,-0.335
30.6171875,-0.325
30.625,-0.325
30.6328125,-0.325
30.640625,-0.275
30.6484375,-0.205
30.65625,-0.195
30.6640625,-0.215
30.671875,-0.165
30.6796875,-0.205
30.6875,-0.235
30.6953125,-0.245
30.703125,-0.325
30.7109375,-0.295
30.71875,-0.335
30.7265625,-0.345
30.734375,-0.345
30.7421875,-0.345
30.75,-0.335
30.7578125,-0.335
30.765625,-0.325
30.7734375,-0.325
30.78125,-0.305
30.7890625,-0.315
30.796875,-0.325
30.8046875,0.305
30.8125,1.735
30.8203125,2.255
30.828125,0.435
30.8359375,-1.495
30.84375,-1.255
30.8515625,-0.845
30.859375,-0.465
30.8671875,-0.245
30.875,-0.185
30.8828125,-0.145
30.890625,-0.125
30.8984375,-0.105
30.90625,-0.085
30.9140625,-0.055
30.921875,-0.035
30.9296875,-0.015
30.9375,0.015
30.9453125,0.045
30.953125,0.065
30.9609375,0.115
30.96875,0.165
30.9765625,0.185
30.984375,0.245
30.9921875,0.305
31,0.385
31.0078125,0.465
31.015625,0.555
31.0234375,0.635
31.03125,0.705
31.0390625,0.745
31.046875,0.775
31.0546875,0.775
31.0625,0.725
31.0703125,0.635
31.078125,0.515
31.0859375,0.365
31.09375,0.205
31.1015625,0.055
31.109375,-0.065
31.1171875,-0.165
31.125,-0.245
31.1328125,-0.295
31.140625,-0.315
31.1484375,-0.395
31.15625,-0.395
31.1640625,-0.385
31.171875,-0.395
31.1796875,-0.385
31.1875,-0.385
31.1953125,-0.375
31.203125,-0.355
31.2109375,-0.345
31.21875,-0.335
31.2265625,-0.325
31.234375,-0.305
31.2421875,-0.285
31.25,-0.285
31.2578125,-0.275
31.265625,-0.265
31.2734375,-0.265
31.28125,-0.275
31.2890625,-0.265
31.296875,-0.275
31.3046875,-0.305
31.3125,-0.295
31.3203125,-0.305
31.328125,-0.305
31.3359375,-0.295
31.34375,-0.305
31.3515625,-0.305
31.359375,-0.295
31.3671875,-0.295
31.375,-0.295
31.3828125,-0.285
31.390625,-0.295
31.3984375,-0.285
31.40625,-0.285
31.4140625,-0.285
31.421875,-0.275
31.4296875,-0.255
31.4375,-0.175
31.4453125,-0.145
31.453125,-0.165
31.4609375,-0.135
31.46875,-0.115
31.4765625,-0.175
31.484375,-0.205
31.4921875,-0.235
31.5,-0.245
31.5078125,-0.265
31.515625,-0.295
31.5234375,-0.295
31.53125,-0.285
31.5390625,-0.285
31.546875,-0.285
31.5546875,-0.275
31.5625,-0.265
31.5703125,-0.255
31.578125,-0.255
31.5859375,-0.275
31.59375,-0.215
31.6015625,0.785
31.609375,2.115
31.6171875,2.215
31.625,-0.495
31.6328125,-1.355
31.640625,-1.025
31.6484375,-0.685
31.65625,-0.365
31.6640625,-0.155
31.671875,-0.125
31.6796875,-0.075
31.6875,-0.055
31.6953125,-0.035
31.703125,-0.015
31.7109375,0.015
31.71875,0.035
31.7265625,0.045
31.734375,0.085
31.7421875,0.125
31.75,0.145
31.7578125,0.185
31.765625,0.225
31.7734375,0.275
31.78125,0.345
31.7890625,0.405
31.796875,0.475
31.8046875,0.565
31.8125,0.665
31.8203125,0.745
31.828125,0.815
31.8359375,0.845
31.84375,0.865
31.8515625,0.835
31.859375,0.755
31.8671875,0.645
31.875,0.485
31.8828125,0.315
31.890625,0.145
31.8984375,0.015
31.90625,-0.105
31.9140625,-0.205
31.921875,-0.275
31.9296875,-0.325
31.9375,-0.355
31.9453125,-0.375
31.953125,-0.375
31.9609375,-0.375
31.96875,-0.365
31.9765625,-0.365
31.984375,-0.365
31.9921875,-0.345
32,-0.335
32.0078125,-0.325
32.015625,-0.305
32.0234375,-0.295
32.03125,-0.275
32.0390625,-0.265
32.046875,-0.265
32.0546875,-0.265
32.0625,-0.255
32.0703125,-0.265
32.078125,-0.275
32.0859375,-0.275
32.09375,-0.285
32.1015625,-0.295
32.109375,-0.295
32.1171875,-0.305
32.125,-0.305
32.1328125,-0.305
32.140625,-0.305
32.1484375,-0.295
32.15625,-0.295
32.1640625,-0.305
32.171875,-0.295
32.1796875,-0.295
32.1875,-0.295
32.1953125,-0.295
32.203125,-0.295
32.2109375,-0.285
32.21875,-0.285
32.2265625,-0.285
32.234375,-0.275
32.2421875,-0.275
32.25,-0.275
32.2578125,-0.205
32.265625,-0.165
32.2734375,-0.155
32.28125,-0.165
32.2890625,-0.125
32.296875,-0.175
32.3046875,-0.205
32.3125,-0.225
32.3203125,-0.255
32.328125,-0.255
32.3359375,-0.295
32.34375,-0.305
32.3515625,-0.305
32.359375,-0.305
32.3671875,-0.305
32.375,-0.295
32.3828125,-0.285
32.390625,-0.285
32.3984375,-0.275
32.40625,-0.275
32.4140625,-0.295
32.421875,-0.005
32.4296875,1.345
32.4375,2.315
32.4453125,1.275
32.453125,-1.455
32.4609375,-1.295
32.46875,-0.845
32.4765625,-0.465
32.484375,-0.215
32.4921875,-0.155
32.5,-0.125
32.5078125,-0.095
32.515625,-0.075
32.5234375,-0.055
32.53125,-0.035
32.5390625,-0.005
32.546875,0.025
32.5546875,0.055
32.5625,0.075
32.5703125,0.105
32.578125,0.155
32.5859375,0.195
32.59375,0.235
32.6015625,0.295
32.609375,0.365
32.6171875,0.445
32.625,0.525
32.6328125,0.635
32.640625,0.725
32.6484375,0.805
32.65625,0.845
32.6640625,0.875
32.671875,0.855
32.6796875,0.795
32.6875,0.695
32.6953125,0.525
32.703125,0.335
32.7109375,0.165
32.71875,0.005
32.7265625,-0.125
32.734375,-0.225
32.7421875,-0.295
32.75,-0.355
32.7578125,-0.385
32.765625,-0.415
32.7734375,-0.415
32.78125,-0.425
32.7890625,-0.435
32.796875,-0.425
32.8046875,-0.405
32.8125,-0.395
32.8203125,-0.375
32.828125,-0.365
32.8359375,-0.345
32.84375,-0.325
32.8515625,-0.325
32.859375,-0.305
32.8671875,-0.285
32.875,-0.285
32.8828125,-0.295
32.890625,-0.305
32.8984375,-0.305
32.90625,-0.305
32.9140625,-0.325
32.921875,-0.335
32.9296875,-0.335
32.9375,-0.335
32.9453125,-0.335
32.953125,-0.335
32.9609375,-0.335
32.96875,-0.335
32.9765625,-0.335
32.984375,-0.335
32.9921875,-0.335
33,-0.335
33.0078125,-0.335
33.015625,-0.335
33.0234375,-0.335
33.03125,-0.335
33.0390625,-0.335
33.046875,-0.335
33.0546875,-0.325
33.0625,-0.325
33.0703125,-0.325
33.078125,-0.325
33.0859375,-0.315
33.09375,-0.315
33.1015625,-0.315
33.109375,-0.325
33.1171875,-0.305
33.125,-0.295
33.1328125,-0.305
33.140625,-0.305
33.1484375,-0.285
33.15625,-0.285
33.1640625,-0.285
33.171875,-0.225
33.1796875,-0.165
33.1875,-0.165
33.1953125,-0.175
33.203125,-0.145
33.2109375,-0.195
33.21875,-0.215
33.2265625,-0.245
33.234375,-0.265
33.2421875,-0.275
33.25,-0.325
33.2578125,-0.325
33.265625,-0.325
33.2734375,-0.315
33.28125,-0.315
33.2890625,-0.305
33.296875,-0.305
33.3046875,-0.285
33.3125,-0.285
33.3203125,-0.305
33.328125,-0.305
33.3359375,0.705
33.34375,2.165
33.3515625,2.225
33.359375,-0.735
33.3671875,-1.575
33.375,-1.035
33.3828125,-0.585
33.390625,-0.275
33.3984375,-0.165
33.40625,-0.145
33.4140625,-0.115
33.421875,-0.095
33.4296875,-0.065
33.4375,-0.045
33.4453125,-0.025
33.453125,-0.005
33.4609375,0.015
33.46875,0.035
33.4765625,0.075
33.484375,0.105
33.4921875,0.135
33.5,0.175
33.5078125,0.225
33.515625,0.275
33.5234375,0.345
33.53125,0.425
33.5390625,0.505
33.546875,0.595
33.5546875,0.685
33.5625,0.755
33.5703125,0.815
33.578125,0.835
33.5859375,0.825
33.59375,0.775
33.6015625,0.675
33.609375,0.535
33.6171875,0.365
33.625,0.195
33.6328125,0.035
33.640625,-0.085
33.6484375,-0.185
33.65625,-0.275
33.6640625,-0.345
33.671875,-0.385
33.6796875,-0.405
33.6875,-0.425
33.6953125,-0.435
33.703125,-0.435
33.7109375,-0.415
33.71875,-0.415
33.7265625,-0.415
33.734375,-0.395
33.7421875,-0.375
33.75,-0.365
33.7578125,-0.345
33.765625,-0.335
33.7734375,-0.305
33.78125,-0.305
33.7890625,-0.305
33.796875,-0.305
33.8046875,-0.305
33.8125,-0.315
33.8203125,-0.315
33.828125,-0.335
33.8359375,-0.335
33.84375,-0.345
33.8515625,-0.355
33.859375,-0.355
33.8671875,-0.355
33.875,-0.355
33.8828125,-0.355
33.890625,-0.365
33.8984375,-0.355
33.90625,-0.355
33.9140625,-0.365
33.921875,-0.355
33.9296875,-0.355
33.9375,-0.345
33.9453125,-0.355
33.953125,-0.345
33.9609375,-0.335
33.96875,-0.345
33.9765625,-0.335
33.984375,-0.335
33.9921875,-0.335
34,-0.325
34.0078125,-0.325
34.015625,-0.325
34.0234375,-0.325
34.03125,-0.325
34.0390625,-0.315
34.046875,-0.305
34.0546875,-0.295
34.0625,-0.295
34.0703125,-0.295
34.078125,-0.295
34.0859375,-0.295
34.09375,-0.285
34.1015625,-0.285
34.109375,-0.285
34.1171875,-0.275
34.125,-0.275
34.1328125,-0.275
34.140625,-0.275
34.1484375,-0.265
34.15625,-0.255
34.1640625,-0.165
34.171875,-0.135
34.1796875,-0.155
34.1875,-0.125
34.1953125,-0.125
34.203125,-0.185
34.2109375,-0.195
34.21875,-0.225
34.2265625,-0.225
34.234375,-0.275
34.2421875,-0.285
34.25,-0.285
34.2578125,-0.285
34.265625,-0.285
34.2734375,-0.275
34.28125,-0.275
34.2890625,-0.265
34.296875,-0.255
34.3046875,-0.255
34.3125,-0.285
34.3203125,-0.205
34.328125,0.785
34.3359375,2.075
34.34375,2.265
34.3515625,-0.505
34.359375,-1.465
34.3671875,-0.995
34.375,-0.575
34.3828125,-0.255
34.390625,-0.145
34.3984375,-0.115
34.40625,-0.095
34.4140625,-0.065
34.421875,-0.055
34.4296875,-0.035
34.4375,-0.015
34.4453125,0.015
34.453125,0.035
34.4609375,0.065
34.46875,0.085
34.4765625,0.125
34.484375,0.155
34.4921875,0.195
34.5,0.245
34.5078125,0.295
34.515625,0.355
34.5234375,0.435
34.53125,0.495
34.5390625,0.585
34.546875,0.665
34.5546875,0.725
34.5625,0.765
34.5703125,0.775
34.578125,0.755
34.5859375,0.695
34.59375,0.615
34.6015625,0.475
34.609375,0.315
34.6171875,0.165
34.625,0.025
34.6328125,-0.075
34.640625,-0.185
34.6484375,-0.255
34.65625,-0.295
34.6640625,-0.335
34.671875,-0.365
34.6796875,-0.365
34.6875,-0.375
34.6953125,-0.375
34.703125,-0.365
34.7109375,-0.355
34.71875,-0.345
34.7265625,-0.335
34.734375,-0.325
34.7421875,-0.315
34.75,-0.295
34.7578125,-0.275
34.765625,-0.265
34.7734375,-0.255
34.78125,-0.255
34.7890625,-0.265
34.796875,-0.265
34.8046875,-0.265
34.8125,-0.275
34.8203125,-0.285
34.828125,-0.295
34.8359375,-0.295
34.84375,-0.295
34.8515625,-0.305
34.859375,-0.305
34.8671875,-0.305
34.875,-0.305
34.8828125,-0.305
34.890625,-0.305
34.8984375,-0.305
34.90625,-0.305
34.9140625,-0.295
34.921875,-0.305
34.9296875,-0.295
34.9375,-0.305
34.9453125,-0.305
34.953125,-0.295
34.9609375,-0.295
34.96875,-0.285
34.9765625,-0.295
34.984375,-0.285
34.9921875,-0.285
35,-0.275
35.0078125,-0.275
35.015625,-0.275
35.0234375,-0.265
35.03125,-0.265
35.0390625,-0.255
35.046875,-0.265
35.0546875,-0.255
35.0625,-0.255
35.0703125,-0.255
35.078125,-0.245
35.0859375,-0.235
35.09375,-0.225
35.1015625,-0.235
35.109375,-0.225
35.1171875,-0.225
35.125,-0.225
35.1328125,-0.215
35.140625,-0.215
35.1484375,-0.165
35.15625,-0.095
35.1640625,-0.085
35.171875,-0.095
35.1796875,-0.045
35.1875,-0.095
35.1953125,-0.135
35.203125,-0.155
35.2109375,-0.175
35.21875,-0.185
35.2265625,-0.235
35.234375,-0.235
35.2421875,-0.235
35.25,-0.225
35.2578125,-0.225
35.265625,-0.225
35.2734375,-0.215
35.28125,-0.195
35.2890625,-0.185
35.296875,-0.235
35.3046875,-0.175
35.3125,0.895
35.3203125,2.235
35.328125,2.235
35.3359375,-0.705
35.34375,-1.285
35.3515625,-0.895
35.359375,-0.515
35.3671875,-0.205
35.375,-0.085
35.3828125,-0.055
35.390625,-0.035
35.3984375,-0.005
35.40625,0.015
35.4140625,0.035
35.421875,0.045
35.4296875,0.075
35.4375,0.095
35.4453125,0.115
35.453125,0.135
35.4609375,0.175
35.46875,0.195
35.4765625,0.235
35.484375,0.275
35.4921875,0.325
35.5,0.375
35.5078125,0.435
35.515625,0.505
35.5234375,0.585
35.53125,0.675
35.5390625,0.745
35.546875,0.785
35.5546875,0.815
35.5625,0.825
35.5703125,0.805
35.578125,0.745
35.5859375,0.635
35.59375,0.515
35.6015625,0.355
35.609375,0.195
35.6171875,0.075
35.625,-0.035
35.6328125,-0.125
35.640625,-0.205
35.6484375,-0.245
35.65625,-0.265
35.6640625,-0.295
35.671875,-0.315
35.6796875,-0.305
35.6875,-0.305
35.6953125,-0.295
35.703125,-0.285
35.7109375,-0.285
35.71875,-0.265
35.7265625,-0.255
35.734375,-0.255
35.7421875,-0.225
35.75,-0.205
35.7578125,-0.205
35.765625,-0.205
35.7734375,-0.205
35.78125,-0.195
35.7890625,-0.195
35.796875,-0.215
35.8046875,-0.225
35.8125,-0.235
35.8203125,-0.235
35.828125,-0.245
35.8359375,-0.235
35.84375,-0.245
35.8515625,-0.245
35.859375,-0.255
35.8671875,-0.245
35.875,-0.255
35.8828125,-0.245
35.890625,-0.245
35.8984375,-0.245
35.90625,-0.235
35.9140625,-0.245
35.921875,-0.245
35.9296875,-0.245
35.9375,-0.245
35.9453125,-0.235
35.953125,-0.235
35.9609375,-0.235
35.96875,-0.225
35.9765625,-0.225
35.984375,-0.235
35.9921875,-0.215
36,-0.215
36.0078125,-0.215
36.015625,-0.225
36.0234375,-0.215
36.03125,-0.205
36.0390625,-0.205
36.046875,-0.205
36.0546875,-0.205
36.0625,-0.195
36.0703125,-0.105
36.078125,-0.085
36.0859375,-0.105
36.09375,-0.065
36.1015625,-0.065
36.109375,-0.125
36.1171875,-0.135
36.125,-0.175
36.1328125,-0.175
36.140625,-0.215
36.1484375,-0.225
36.15625,-0.225
36.1640625,-0.225
36.171875,-0.225
36.1796875,-0.215
36.1875,-0.215
36.1953125,-0.205
36.203125,-0.195
36.2109375,-0.225
36.21875,-0.275
36.2265625,0.315
36.234375,1.725
36.2421875,2.385
36.25,0.825
36.2578125,-1.435
36.265625,-1.155
36.2734375,-0.785
36.28125,-0.445
36.2890625,-0.175
36.296875,-0.085
36.3046875,-0.045
36.3125,-0.025
36.3203125,0.005
36.328125,0.025
36.3359375,0.045
36.34375,0.075
36.3515625,0.095
36.359375,0.115
36.3671875,0.135
36.375,0.165
36.3828125,0.195
36.390625,0.235
36.3984375,0.285
36.40625,0.325
36.4140625,0.385
36.421875,0.445
36.4296875,0.515
36.4375,0.605
36.4453125,0.695
36.453125,0.765
36.4609375,0.835
36.46875,0.875
36.4765625,0.875
36.484375,0.845
36.4921875,0.775
36.5,0.655
36.5078125,0.485
36.515625,0.325
36.5234375,0.165
36.53125,0.035
36.5390625,-0.095
36.546875,-0.195
36.5546875,-0.265
36.5625,-0.305
36.5703125,-0.335
36.578125,-0.365
36.5859375,-0.355
36.59375,-0.355
36.6015625,-0.355
36.609375,-0.355
36.6171875,-0.345
36.625,-0.335
36.6328125,-0.325
36.640625,-0.315
36.6484375,-0.285
36.65625,-0.275
36.6640625,-0.275
36.671875,-0.275
36.6796875,-0.265
36.6875,-0.255
36.6953125,-0.255
36.703125,-0.265
36.7109375,-0.275
36.71875,-0.275
36.7265625,-0.285
36.734375,-0.295
36.7421875,-0.285
36.75,-0.295
36.7578125,-0.295
36.765625,-0.295
36.7734375,-0.305
36.78125,-0.305
36.7890625,-0.305
36.796875,-0.305
36.8046875,-0.295
36.8125,-0.305
36.8203125,-0.295
36.828125,-0.305
36.8359375,-0.295
36.84375,-0.295
36.8515625,-0.295
36.859375,-0.295
36.8671875,-0.285
36.875,-0.295
36.8828125,-0.295
36.890625,-0.295
36.8984375,-0.285
36.90625,-0.275
36.9140625,-0.275
36.921875,-0.285
36.9296875,-0.275
36.9375,-0.275
36.9453125,-0.265
36.953125,-0.275
36.9609375,-0.265
36.96875,-0.255
36.9765625,-0.255
36.984375,-0.175
36.9921875,-0.145
37,-0.165
37.0078125,-0.135
37.015625,-0.135
37.0234375,-0.185
37.03125,-0.195
37.0390625,-0.235
37.046875,-0.245
37.0546875,-0.265
37.0625,-0.285
37.0703125,-0.295
37.078125,-0.305
37.0859375,-0.295
37.09375,-0.285
37.1015625,-0.275
37.109375,-0.275
37.1171875,-0.265
37.125,-0.275
37.1328125,-0.325
37.140625,-0.045
37.1484375,1.275
37.15625,2.275
37.1640625,1.615
37.171875,-1.345
37.1796875,-1.355
37.1875,-0.855
37.1953125,-0.445
37.203125,-0.215
37.2109375,-0.145
37.21875,-0.125
37.2265625,-0.095
37.234375,-0.075
37.2421875,-0.055
37.25,-0.035
37.2578125,-0.005
37.265625,0.015
37.2734375,0.035
37.28125,0.065
37.2890625,0.095
37.296875,0.125
37.3046875,0.165
37.3125,0.205
37.3203125,0.265
37.328125,0.315
37.3359375,0.385
37.34375,0.465
37.3515625,0.555
37.359375,0.635
37.3671875,0.735
37.375,0.805
37.3828125,0.855
37.390625,0.855
37.3984375,0.845
37.40625,0.785
37.4140625,0.665
37.421875,0.505
37.4296875,0.325
37.4375,0.155
37.4453125,-0.015
37.453125,-0.145
37.4609375,-0.235
37.46875,-0.315
37.4765625,-0.355
37.484375,-0.395
37.4921875,-0.425
37.5,-0.435
37.5078125,-0.445
37.515625,-0.435
37.5234375,-0.435
37.53125,-0.435
37.5390625,-0.415
37.546875,-0.405
37.5546875,-0.385
37.5625,-0.375
37.5703125,-0.355
37.578125,-0.335
37.5859375,-0.325
37.59375,-0.305
37.6015625,-0.305
37.609375,-0.305
37.6171875,-0.305
37.625,-0.305
37.6328125,-0.315
37.640625,-0.325
37.6484375,-0.335
37.65625,-0.335
37.6640625,-0.345
37.671875,-0.345
37.6796875,-0.335
37.6875,-0.335
37.6953125,-0.345
37.703125,-0.345
37.7109375,-0.345
37.71875,-0.345
37.7265625,-0.345
37.734375,-0.355
37.7421875,-0.345
37.75,-0.335
37.7578125,-0.335
37.765625,-0.345
37.7734375,-0.335
37.78125,-0.335
37.7890625,-0.335
37.796875,-0.335
37.8046875,-0.325
37.8125,-0.325
37.8203125,-0.325
37.828125,-0.325
37.8359375,-0.305
37.84375,-0.305
37.8515625,-0.305
37.859375,-0.305
37.8671875,-0.305
37.875,-0.295
37.8828125,-0.295
37.890625,-0.295
37.8984375,-0.285
37.90625,-0.275
37.9140625,-0.275
37.921875,-0.205
37.9296875,-0.155
37.9375,-0.165
37.9453125,-0.155
37.953125,-0.145
37.9609375,-0.195
37.96875,-0.215
37.9765625,-0.255
37.984375,-0.255
37.9921875,-0.265
38,-0.305
38.0078125,-0.305
38.015625,-0.305
38.0234375,-0.305
38.03125,-0.305
38.0390625,-0.295
38.046875,-0.285
38.0546875,-0.275
38.0625,-0.265
38.0703125,-0.325
38.078125,-0.145
38.0859375,1.165
38.09375,2.205
38.1015625,1.865
38.109375,-1.115
38.1171875,-1.395
38.125,-0.905
38.1328125,-0.475
38.140625,-0.215
38.1484375,-0.145
38.15625,-0.115
38.1640625,-0.095
38.171875,-0.075
38.1796875,-0.055
38.1875,-0.035
38.1953125,-0.015
38.203125,0.005
38.2109375,0.035
38.21875,0.055
38.2265625,0.085
38.234375,0.115
38.2421875,0.155
38.25,0.195
38.2578125,0.245
38.265625,0.295
38.2734375,0.355
38.28125,0.415
38.2890625,0.495
38.296875,0.585
38.3046875,0.675
38.3125,0.745
38.3203125,0.795
38.328125,0.825
38.3359375,0.815
38.34375,0.765
38.3515625,0.685
38.359375,0.555
38.3671875,0.405
38.375,0.235
38.3828125,0.065
38.390625,-0.075
38.3984375,-0.175
38.40625,-0.265
38.4140625,-0.325
38.421875,-0.355
38.4296875,-0.385
38.4375,-0.395
38.4453125,-0.405
38.453125,-0.405
38.4609375,-0.395
38.46875,-0.375
38.4765625,-0.375
38.484375,-0.365
38.4921875,-0.335
38.5,-0.335
38.5078125,-0.315
38.515625,-0.305
38.5234375,-0.285
38.53125,-0.275
38.5390625,-0.275
38.546875,-0.285
38.5546875,-0.275
38.5625,-0.275
38.5703125,-0.275
38.578125,-0.295
38.5859375,-0.295
38.59375,-0.305
38.6015625,-0.305
38.609375,-0.305
38.6171875,-0.315
38.625,-0.315
38.6328125,-0.305
38.640625,-0.315
38.6484375,-0.305
38.65625,-0.305
38.6640625,-0.305
38.671875,-0.305
38.6796875,-0.295
38.6875,-0.305
38.6953125,-0.295
38.703125,-0.295
38.7109375,-0.295
38.71875,-0.285
38.7265625,-0.285
38.734375,-0.295
38.7421875,-0.285
38.75,-0.275
38.7578125,-0.275
38.765625,-0.275
38.7734375,-0.275
38.78125,-0.265
38.7890625,-0.265
38.796875,-0.265
38.8046875,-0.255
38.8125,-0.255
38.8203125,-0.255
38.828125,-0.245
38.8359375,-0.245
38.84375,-0.235
38.8515625,-0.235
38.859375,-0.225
38.8671875,-0.145
38.875,-0.105
38.8828125,-0.135
38.890625,-0.095
38.8984375,-0.085
38.90625,-0.135
38.9140625,-0.165
38.921875,-0.205
38.9296875,-0.205
38.9375,-0.235
38.9453125,-0.265
38.953125,-0.275
38.9609375,-0.265
38.96875,-0.265
38.9765625,-0.255
38.984375,-0.255
38.9921875,-0.245
39,-0.235
39.0078125,-0.225
39.015625,-0.285
39.0234375,-0.125
39.03125,1.135
39.0390625,2.285
39.046875,2.045
39.0546875,-0.835
39.0625,-1.365
39.0703125,-0.935
39.078125,-0.525
39.0859375,-0.245
39.09375,-0.135
39.1015625,-0.095
39.109375,-0.075
39.1171875,-0.045
39.125,-0.035
39.1328125,-0.015
39.140625,0.005
39.1484375,0.045
39.15625,0.055
39.1640625,0.095
39.171875,0.105
39.1796875,0.145
39.1875,0.175
39.1953125,0.215
39.203125,0.265
39.2109375,0.325
39.21875,0.385
39.2265625,0.455
39.234375,0.525
39.2421875,0.615
39.25,0.685
39.2578125,0.745
39.265625,0.775
39.2734375,0.785
39.28125,0.775
39.2890625,0.725
39.296875,0.625
39.3046875,0.515
39.3125,0.375
39.3203125,0.235
39.328125,0.105
39.3359375,0.005
39.34375,-0.075
39.3515625,-0.145
39.359375,-0.195
39.3671875,-0.225
39.375,-0.255
39.3828125,-0.255
39.390625,-0.255
39.3984375,-0.245
39.40625,-0.225
39.4140625,-0.215
39.421875,-0.205
39.4296875,-0.185
39.4375,-0.165
39.4453125,-0.145
39.453125,-0.125
39.4609375,-0.105
39.46875,-0.085
39.4765625,-0.075
39.484375,-0.055
39.4921875,-0.045
39.5,-0.035
39.5078125,-0.035
39.515625,-0.035
39.5234375,-0.025
39.53125,-0.025
39.5390625,-0.025
39.546875,-0.035
39.5546875,-0.025
39.5625,-0.015
39.5703125,-0.025
39.578125,-0.015
39.5859375,-0.015
39.59375,-0.015
39.6015625,-0.005
39.609375,-0.005
39.6171875,-0.005
39.625,-0.015
39.6328125,-0.005
39.640625,-0.005
39.6484375,-0.005
39.65625,-0.005
39.6640625,-0.005
39.671875,-0.005
39.6796875,-0.005
39.6875,-0.005
39.6953125,-0.005
39.703125,-0.015
39.7109375,-0.005
39.71875,-0.005
39.7265625,-0.005
39.734375,-0.015
39.7421875,-0.015
39.75,-0.015
39.7578125,-0.015
39.765625,-0.025
39.7734375,-0.025
39.78125,-0.035
39.7890625,0.015
39.796875,0.015
39.8046875,0.005
39.8125,0.025
39.8203125,0.025
39.828125,-0.015
39.8359375,-0.035
39.84375,-0.055
39.8515625,-0.075
39.859375,-0.105
39.8671875,-0.125
39.875,-0.135
39.8828125,-0.145
39.890625,-0.155
39.8984375,-0.155
39.90625,-0.155
39.9140625,-0.155
39.921875,-0.145
39.9296875,-0.165
39.9375,-0.235
39.9453125,0.005
39.953125,1.295
39.9609375,2.185
39.96875,1.095
39.9765625,-1.235
39.984375,-1.055
39.9921875,-0.695
40,-0.365
40.0078125,-0.145
40.015625,-0.085
40.0234375,-0.055
40.03125,-0.035
40.0390625,-0.015
40.046875,-0.005
40.0546875,0.025
40.0625,0.045
40.0703125,0.065
40.078125,0.085
40.0859375,0.125
40.09375,0.145
40.1015625,0.175
40.109375,0.215
40.1171875,0.255
40.125,0.295
40.1328125,0.365
40.140625,0.415
40.1484375,0.505
40.15625,0.595
40.1640625,0.675
40.171875,0.745
40.1796875,0.815
40.1875,0.855
40.1953125,0.845
40.203125,0.825
40.2109375,0.765
40.21875,0.645
40.2265625,0.495
40.234375,0.315
40.2421875,0.145
40.25,0.015
40.2578125,-0.105
40.265625,-0.195
40.2734375,-0.265
40.28125,-0.295
40.2890625,-0.335
40.296875,-0.355
40.3046875,-0.355
40.3125,-0.355
40.3203125,-0.345
40.328125,-0.335
40.3359375,-0.335
40.34375,-0.295
40.3515625,-0.295
40.359375,-0.285
40.3671875,-0.275
40.375,-0.255
40.3828125,-0.235
40.390625,-0.245
40.3984375,-0.225
40.40625,-0.215
40.4140625,-0.225
40.421875,-0.225
40.4296875,-0.225
40.4375,-0.235
40.4453125,-0.235
40.453125,-0.255
40.4609375,-0.255
40.46875,-0.245
40.4765625,-0.245
40.484375,-0.265
40.4921875,-0.265
40.5,-0.265
40.5078125,-0.265
40.515625,-0.275
40.5234375,-0.265
40.53125,-0.265
40.5390625,-0.275
40.546875,-0.275
40.5546875,-0.275
40.5625,-0.275
40.5703125,-0.285
40.578125,-0.285
40.5859375,-0.275
40.59375,-0.275
40.6015625,-0.275
40.609375,-0.275
40.6171875,-0.275
40.625,-0.265
40.6328125,-0.265
40.640625,-0.265
40.6484375,-0.265
40.65625,-0.255
40.6640625,-0.265
40.671875,-0.245
40.6796875,-0.175
40.6875,-0.145
40.6953125,-0.175
40.703125,-0.135
40.7109375,-0.125
40.71875,-0.195
40.7265625,-0.205
40.734375,-0.245
40.7421875,-0.245
40.75,-0.285
40.7578125,-0.295
40.765625,-0.295
40.7734375,-0.305
40.78125,-0.295
40.7890625,-0.295
40.796875,-0.295
40.8046875,-0.275
40.8125,-0.275
40.8203125,-0.305
40.828125,-0.275
40.8359375,0.635
40.84375,2.095
40.8515625,2.185
40.859375,-0.645
40.8671875,-1.465
40.875,-1.015
40.8828125,-0.655
40.890625,-0.335
40.8984375,-0.185
40.90625,-0.155
40.9140625,-0.125
40.921875,-0.115
40.9296875,-0.085
40.9375,-0.065
40.9453125,-0.045
40.953125,-0.025
40.9609375,-0.005
40.96875,0.025
40.9765625,0.055
40.984375,0.075
40.9921875,0.115
41,0.155
41.0078125,0.205
41.015625,0.255
41.0234375,0.315
41.03125,0.395
41.0390625,0.465
41.046875,0.555
41.0546875,0.655
41.0625,0.715
41.0703125,0.765
41.078125,0.795
41.0859375,0.795
41.09375,0.755
41.1015625,0.665
41.109375,0.535
41.1171875,0.385
41.125,0.195
41.1328125,0.035
41.140625,-0.105
41.1484375,-0.205
41.15625,-0.295
41.1640625,-0.365
41.171875,-0.415
41.1796875,-0.435
41.1875,-0.465
41.1953125,-0.475
41.203125,-0.485
41.2109375,-0.485
41.21875,-0.475
41.2265625,-0.475
41.234375,-0.465
41.2421875,-0.435
41.25,-0.425
41.2578125,-0.415
41.265625,-0.395
41.2734375,-0.385
41.28125,-0.385
41.2890625,-0.365
41.296875,-0.355
41.3046875,-0.365
41.3125,-0.365
41.3203125,-0.375
41.328125,-0.375
41.3359375,-0.375
41.34375,-0.395
41.3515625,-0.395
41.359375,-0.395
41.3671875,-0.395
41.375,-0.405
41.3828125,-0.405
41.390625,-0.405
41.3984375,-0.395
41.40625,-0.405
41.4140625,-0.395
41.421875,-0.405
41.4296875,-0.405
41.4375,-0.405
41.4453125,-0.395
41.453125,-0.405
41.4609375,-0.405
41.46875,-0.395
41.4765625,-0.395
41.484375,-0.395
41.4921875,-0.395
41.5,-0.385
41.5078125,-0.385
41.515625,-0.385
41.5234375,-0.385
41.53125,-0.375
41.5390625,-0.365
41.546875,-0.375
41.5546875,-0.365
41.5625,-0.375
41.5703125,-0.365
41.578125,-0.365
41.5859375,-0.355
41.59375,-0.285
41.6015625,-0.235
41.609375,-0.235
41.6171875,-0.245
41.625,-0.205
41.6328125,-0.245
41.640625,-0.285
41.6484375,-0.305
41.65625,-0.325
41.6640625,-0.345
41.671875,-0.375
41.6796875,-0.375
41.6875,-0.385
41.6953125,-0.385
41.703125,-0.375
41.7109375,-0.375
41.71875,-0.365
41.7265625,-0.355
41.734375,-0.345
41.7421875,-0.375
41.75,-0.385
41.7578125,0.345
41.765625,1.875
41.7734375,2.265
41.78125,0.195
41.7890625,-1.605
41.796875,-1.225
41.8046875,-0.785
41.8125,-0.425
41.8203125,-0.245
41.828125,-0.215
41.8359375,-0.185
41.84375,-0.165
41.8515625,-0.135
41.859375,-0.125
41.8671875,-0.105
41.875,-0.085
41.8828125,-0.055
41.890625,-0.035
41.8984375,-0.005
41.90625,0.025
41.9140625,0.055
41.921875,0.095
41.9296875,0.145
41.9375,0.185
41.9453125,0.245
41.953125,0.305
41.9609375,0.375
41.96875,0.455
41.9765625,0.545
41.984375,0.625
41.9921875,0.695
42,0.735
42.0078125,0.725
42.015625,0.705
42.0234375,0.645
42.03125,0.545
42.0390625,0.395
42.046875,0.235
42.0546875,0.085
42.0625,-0.045
42.0703125,-0.175
42.078125,-0.265
42.0859375,-0.335
42.09375,-0.385
42.1015625,-0.415
42.109375,-0.435
42.1171875,-0.445
42.125,-0.445
42.1328125,-0.445
42.140625,-0.435
42.1484375,-0.425
42.15625,-0.405
42.1640625,-0.395
42.171875,-0.395
42.1796875,-0.375
42.1875,-0.355
42.1953125,-0.345
42.203125,-0.325
42.2109375,-0.315
42.21875,-0.315
42.2265625,-0.315
42.234375,-0.315
42.2421875,-0.315
42.25,-0.325
42.2578125,-0.335
42.265625,-0.345
42.2734375,-0.345
42.28125,-0.345
42.2890625,-0.345
42.296875,-0.355
42.3046875,-0.345
42.3125,-0.355
42.3203125,-0.345
42.328125,-0.355
42.3359375,-0.345
42.34375,-0.345
42.3515625,-0.345
42.359375,-0.345
42.3671875,-0.335
42.375,-0.335
42.3828125,-0.335
42.390625,-0.335
42.3984375,-0.335
42.40625,-0.325
42.4140625,-0.325
42.421875,-0.335
42.4296875,-0.325
42.4375,-0.325
42.4453125,-0.315
42.453125,-0.325
42.4609375,-0.305
42.46875,-0.305
42.4765625,-0.305
42.484375,-0.305
42.4921875,-0.305
42.5,-0.295
42.5078125,-0.295
42.515625,-0.295
42.5234375,-0.285
42.53125,-0.235
42.5390625,-0.185
42.546875,-0.165
42.5546875,-0.185
42.5625,-0.135
42.5703125,-0.155
42.578125,-0.205
42.5859375,-0.215
42.59375,-0.255
42.6015625,-0.255
42.609375,-0.295
42.6171875,-0.305
42.625,-0.315
42.6328125,-0.305
42.640625,-0.305
42.6484375,-0.295
42.65625,-0.285
42.6640625,-0.275
42.671875,-0.275
42.6796875,-0.285
42.6875,-0.335
42.6953125,0.115
42.703125,1.685
42.7109375,2.335
42.71875,0.825
42.7265625,-1.425
42.734375,-1.225
42.7421875,-0.815
42.75,-0.435
42.7578125,-0.205
42.765625,-0.155
42.7734375,-0.125
42.78125,-0.105
42.7890625,-0.085
42.796875,-0.065
42.8046875,-0.045
42.8125,-0.015
42.8203125,0.005
42.828125,0.025
42.8359375,0.055
42.84375,0.075
42.8515625,0.115
42.859375,0.145
42.8671875,0.185
42.875,0.235
42.8828125,0.285
42.890625,0.345
42.8984375,0.415
42.90625,0.485
42.9140625,0.575
42.921875,0.645
42.9296875,0.705
42.9375,0.755
42.9453125,0.775
42.953125,0.735
42.9609375,0.695
42.96875,0.595
42.9765625,0.465
42.984375,0.305
42.9921875,0.145
43,0.025
43.0078125,-0.095
43.015625,-0.195
43.0234375,-0.265
43.03125,-0.315
43.0390625,-0.345
43.046875,-0.365
43.0546875,-0.375
43.0625,-0.385
43.0703125,-0.375
43.078125,-0.375
43.0859375,-0.355
43.09375,-0.345
43.1015625,-0.335
43.109375,-0.325
43.1171875,-0.305
43.125,-0.295
43.1328125,-0.275
43.140625,-0.265
43.1484375,-0.255
43.15625,-0.245
43.1640625,-0.245
43.171875,-0.255
43.1796875,-0.255
43.1875,-0.265
43.1953125,-0.265
43.203125,-0.285
43.2109375,-0.275
43.21875,-0.285
43.2265625,-0.295
43.234375,-0.285
43.2421875,-0.275
43.25,-0.275
43.2578125,-0.285
43.265625,-0.285
43.2734375,-0.275
43.28125,-0.265
43.2890625,-0.275
43.296875,-0.275
43.3046875,-0.265
43.3125,-0.275
43.3203125,-0.255
43.328125,-0.275
43.3359375,-0.255
43.34375,-0.245
43.3515625,-0.255
43.359375,-0.255
43.3671875,-0.245
43.375,-0.245
43.3828125,-0.235
43.390625,-0.245
43.3984375,-0.235
43.40625,-0.235
43.4140625,-0.225
43.421875,-0.225
43.4296875,-0.225
43.4375,-0.215
43.4453125,-0.215
43.453125,-0.215
43.4609375,-0.215
43.46875,-0.185
43.4765625,-0.115
43.484375,-0.085
43.4921875,-0.115
43.5,-0.075
43.5078125,-0.055
43.515625,-0.125
43.5234375,-0.125
43.53125,-0.175
43.5390625,-0.165
43.546875,-0.205
43.5546875,-0.215
43.5625,-0.225
43.5703125,-0.225
43.578125,-0.225
43.5859375,-0.215
43.59375,-0.215
43.6015625,-0.205
43.609375,-0.195
43.6171875,-0.185
43.625,-0.245
43.6328125,-0.075
43.640625,1.135
43.6484375,2.315
43.65625,2.155
43.6640625,-0.905
43.671875,-1.255
43.6796875,-0.885
43.6875,-0.515
43.6953125,-0.215
43.703125,-0.095
43.7109375,-0.065
43.71875,-0.045
43.7265625,-0.015
43.734375,0.005
43.7421875,0.025
43.75,0.055
43.7578125,0.075
43.765625,0.095
43.7734375,0.115
43.78125,0.145
43.7890625,0.175
43.796875,0.205
43.8046875,0.245
43.8125,0.295
43.8203125,0.345
43.828125,0.415
43.8359375,0.485
43.84375,0.565
43.8515625,0.675
43.859375,0.745
43.8671875,0.825
43.875,0.865
43.8828125,0.885
43.890625,0.855
43.8984375,0.795
43.90625,0.695
43.9140625,0.535
43.921875,0.345
43.9296875,0.185
43.9375,0.045
43.9453125,-0.075
43.953125,-0.165
43.9609375,-0.225
43.96875,-0.275
43.9765625,-0.305
43.984375,-0.335
43.9921875,-0.335
44,-0.335
44.0078125,-0.335
44.015625,-0.335
44.0234375,-0.325
44.03125,-0.305
44.0390625,-0.295
44.046875,-0.275
44.0546875,-0.265
44.0625,-0.255
44.0703125,-0.255
44.078125,-0.235
44.0859375,-0.225
44.09375,-0.215
44.1015625,-0.225
44.109375,-0.235
44.1171875,-0.245
44.125,-0.245
44.1328125,-0.245
44.140625,-0.255
44.1484375,-0.255
44.15625,-0.255
44.1640625,-0.255
44.171875,-0.275
44.1796875,-0.265
44.1875,-0.265
44.1953125,-0.275
44.203125,-0.275
44.2109375,-0.265
44.21875,-0.265
44.2265625,-0.265
44.234375,-0.275
44.2421875,-0.265
44.25,-0.255
44.2578125,-0.255
44.265625,-0.255
44.2734375,-0.255
44.28125,-0.255
44.2890625,-0.245
44.296875,-0.255
44.3046875,-0.245
44.3125,-0.245
44.3203125,-0.235
44.328125,-0.235
44.3359375,-0.235
44.34375,-0.235
44.3515625,-0.235
44.359375,-0.195
44.3671875,-0.135
44.375,-0.115
44.3828125,-0.135
44.390625,-0.095
44.3984375,-0.125
44.40625,-0.155
44.4140625,-0.175
44.421875,-0.215
44.4296875,-0.215
44.4375,-0.255
44.4453125,-0.265
44.453125,-0.255
44.4609375,-0.255
44.46875,-0.255
44.4765625,-0.265
44.484375,-0.255
44.4921875,-0.235
44.5,-0.235
44.5078125,-0.255
44.515625,-0.235
44.5234375,0.695
44.53125,2.105
44.5390625,2.195
44.546875,-0.665
44.5546875,-1.405
44.5625,-0.975
44.5703125,-0.585
44.578125,-0.285
44.5859375,-0.145
44.59375,-0.115
44.6015625,-0.085
44.609375,-0.065
44.6171875,-0.035
44.625,-0.015
44.6328125,0.005
44.640625,0.035
44.6484375,0.055
44.65625,0.085
44.6640625,0.105
44.671875,0.135
44.6796875,0.175
44.6875,0.215
44.6953125,0.255
44.703125,0.315
44.7109375,0.385
44.71875,0.465
44.7265625,0.545
44.734375,0.635
44.7421875,0.725
44.75,0.795
44.7578125,0.845
44.765625,0.855
44.7734375,0.845
44.78125,0.815
44.7890625,0.715
44.796875,0.565
44.8046875,0.395
44.8125,0.215
44.8203125,0.065
44.828125,-0.075
44.8359375,-0.175
44.84375,-0.265
44.8515625,-0.325
44.859375,-0.375
44.8671875,-0.395
44.875,-0.405
44.8828125,-0.425
44.890625,-0.435
44.8984375,-0.425
44.90625,-0.415
44.9140625,-0.405
44.921875,-0.395
44.9296875,-0.375
44.9375,-0.365
44.9453125,-0.355
44.953125,-0.345
44.9609375,-0.325
44.96875,-0.315
44.9765625,-0.305
44.984375,-0.305
44.9921875,-0.305
45,-0.305
45.0078125,-0.315
45.015625,-0.335
45.0234375,-0.335
45.03125,-0.335
45.0390625,-0.345
45.046875,-0.345
45.0546875,-0.355
45.0625,-0.355
45.0703125,-0.355
45.078125,-0.355
45.0859375,-0.355
45.09375,-0.355
45.1015625,-0.355
45.109375,-0.355
45.1171875,-0.355
45.125,-0.355
45.1328125,-0.345
45.140625,-0.355
45.1484375,-0.345
45.15625,-0.335
45.1640625,-0.335
45.171875,-0.345
45.1796875,-0.335
45.1875,-0.335
45.1953125,-0.325
45.203125,-0.335
45.2109375,-0.325
45.21875,-0.325
45.2265625,-0.315
45.234375,-0.315
45.2421875,-0.305
45.25,-0.305
45.2578125,-0.305
45.265625,-0.305
45.2734375,-0.295
45.28125,-0.225
45.2890625,-0.185
45.296875,-0.185
45.3046875,-0.185
45.3125,-0.145
45.3203125,-0.205
45.328125,-0.235
45.3359375,-0.255
45.34375,-0.265
45.3515625,-0.295
45.359375,-0.325
45.3671875,-0.325
45.375,-0.325
45.3828125,-0.325
45.390625,-0.325
45.3984375,-0.315
45.40625,-0.295
45.4140625,-0.285
45.421875,-0.295
45.4296875,-0.345
45.4375,-0.005
45.4453125,1.405
45.453125,2.185
45.4609375,1.335
45.46875,-1.255
45.4765625,-1.305
45.484375,-0.865
45.4921875,-0.475
45.5,-0.235
45.5078125,-0.175
45.515625,-0.155
45.5234375,-0.125
45.53125,-0.115
45.5390625,-0.085
45.546875,-0.075
45.5546875,-0.045
45.5625,-0.025
45.5703125,-0.005
45.578125,0.015
45.5859375,0.055
45.59375,0.085
45.6015625,0.115
45.609375,0.155
45.6171875,0.205
45.625,0.255
45.6328125,0.305
45.640625,0.375
45.6484375,0.455
45.65625,0.545
45.6640625,0.615
45.671875,0.675
45.6796875,0.735
45.6875,0.765
45.6953125,0.755
45.703125,0.715
45.7109375,0.635
45.71875,0.515
45.7265625,0.375
45.734375,0.215
45.7421875,0.075
45.75,-0.055
45.7578125,-0.155
45.765625,-0.255
45.7734375,-0.315
45.78125,-0.365
45.7890625,-0.375
45.796875,-0.405
45.8046875,-0.405
45.8125,-0.415
45.8203125,-0.405
45.828125,-0.405
45.8359375,-0.395
45.84375,-0.385
45.8515625,-0.365
45.859375,-0.355
45.8671875,-0.345
45.875,-0.335
45.8828125,-0.315
45.890625,-0.295
45.8984375,-0.285
45.90625,-0.295
45.9140625,-0.295
45.921875,-0.295
45.9296875,-0.295
45.9375,-0.295
45.9453125,-0.315
45.953125,-0.315
45.9609375,-0.325
45.96875,-0.325
45.9765625,-0.325
45.984375,-0.335
45.9921875,-0.325
46,-0.335
46.0078125,-0.335
46.015625,-0.325
46.0234375,-0.325
46.03125,-0.325
46.0390625,-0.325
46.046875,-0.325
46.0546875,-0.315
46.0625,-0.315
46.0703125,-0.315
46.078125,-0.315
46.0859375,-0.305
46.09375,-0.305
46.1015625,-0.295
46.109375,-0.295
46.1171875,-0.295
46.125,-0.285
46.1328125,-0.285
46.140625,-0.275
46.1484375,-0.265
46.15625,-0.255
46.1640625,-0.265
46.171875,-0.265
46.1796875,-0.255
46.1875,-0.245
46.1953125,-0.245
46.203125,-0.245
46.2109375,-0.185
46.21875,-0.135
46.2265625,-0.125
46.234375,-0.125
46.2421875,-0.085
46.25,-0.155
46.2578125,-0.185
46.265625,-0.215
46.2734375,-0.215
46.28125,-0.235
46.2890625,-0.275
46.296875,-0.285
46.3046875,-0.285
46.3125,-0.275
46.3203125,-0.275
46.328125,-0.275
46.3359375,-0.265
46.34375,-0.255
46.3515625,-0.245
46.359375,-0.285
46.3671875,-0.245
46.375,0.685
46.3828125,2.065
46.390625,2.195
46.3984375,-0.425
46.40625,-1.385
46.4140625,-0.985
46.421875,-0.565
46.4296875,-0.265
46.4375,-0.155
46.4453125,-0.115
46.453125,-0.095
46.4609375,-0.065
46.46875,-0.045
46.4765625,-0.025
46.484375,-0.015
46.4921875,0.015
46.5,0.035
46.5078125,0.065
46.515625,0.075
46.5234375,0.105
46.53125,0.135
46.5390625,0.175
46.546875,0.205
46.5546875,0.265
46.5625,0.305
46.5703125,0.375
46.578125,0.435
46.5859375,0.525
46.59375,0.585
46.6015625,0.665
46.609375,0.715
46.6171875,0.765
46.625,0.775
46.6328125,0.755
46.640625,0.705
46.6484375,0.615
46.65625,0.475
46.6640625,0.315
46.671875,0.175
46.6796875,0.045
46.6875,-0.065
46.6953125,-0.155
46.703125,-0.225
46.7109375,-0.275
46.71875,-0.325
46.7265625,-0.335
46.734375,-0.355
46.7421875,-0.355
46.75,-0.345
46.7578125,-0.345
46.765625,-0.335
46.7734375,-0.325
46.78125,-0.325
46.7890625,-0.295
46.796875,-0.295
46.8046875,-0.265
46.8125,-0.265
46.8203125,-0.245
46.828125,-0.245
46.8359375,-0.225
46.84375,-0.235
46.8515625,-0.235
46.859375,-0.245
46.8671875,-0.255
46.875,-0.255
46.8828125,-0.265
46.890625,-0.265
46.8984375,-0.265
46.90625,-0.265
46.9140625,-0.265
46.921875,-0.265
46.9296875,-0.265
46.9375,-0.265
46.9453125,-0.265
46.953125,-0.265
46.9609375,-0.265
46.96875,-0.255
46.9765625,-0.265
46.984375,-0.265
46.9921875,-0.255
47,-0.255
47.0078125,-0.255
47.015625,-0.255
47.0234375,-0.245
47.03125,-0.245
47.0390625,-0.245
47.046875,-0.235
47.0546875,-0.245
47.0625,-0.235
47.0703125,-0.235
47.078125,-0.245
47.0859375,-0.235
47.09375,-0.225
47.1015625,-0.225
47.109375,-0.225
47.1171875,-0.225
47.125,-0.225
47.1328125,-0.185
47.140625,-0.135
47.1484375,-0.095
47.15625,-0.125
47.1640625,-0.085
47.171875,-0.085
47.1796875,-0.135
47.1875,-0.155
47.1953125,-0.195
47.203125,-0.205
47.2109375,-0.235
47.21875,-0.245
47.2265625,-0.245
47.234375,-0.255
47.2421875,-0.235
47.25,-0.235
47.2578125,-0.235
47.265625,-0.225
47.2734375,-0.205
47.28125,-0.255
47.2890625,-0.255
47.296875,0.555
47.3046875,2.065
47.3125,2.325
47.3203125,0.055
47.328125,-1.415
47.3359375,-1.045
47.34375,-0.665
47.3515625,-0.325
47.359375,-0.145
47.3671875,-0.085
47.375,-0.075
47.3828125,-0.035
47.390625,-0.025
47.3984375,0.005
47.40625,0.015
47.4140625,0.045
47.421875,0.065
47.4296875,0.085
47.4375,0.115
47.4453125,0.145
47.453125,0.175
47.4609375,0.205
47.46875,0.255
47.4765625,0.305
47.484375,0.355
47.4921875,0.425
47.5,0.495
47.5078125,0.585
47.515625,0.665
47.5234375,0.745
47.53125,0.805
47.5390625,0.845
47.546875,0.855
47.5546875,0.825
47.5625,0.775
47.5703125,0.675
47.578125,0.525
47.5859375,0.375
47.59375,0.195
47.6015625,0.055
47.609375,-0.075
47.6171875,-0.165
47.625,-0.245
47.6328125,-0.295
47.640625,-0.335
47.6484375,-0.345
47.65625,-0.355
47.6640625,-0.365
47.671875,-0.365
47.6796875,-0.355
47.6875,-0.345
47.6953125,-0.335
47.703125,-0.315
47.7109375,-0.305
47.71875,-0.305
47.7265625,-0.275
47.734375,-0.275
47.7421875,-0.255
47.75,-0.255
47.7578125,-0.245
47.765625,-0.255
47.7734375,-0.255
47.78125,-0.255
47.7890625,-0.265
47.796875,-0.275
47.8046875,-0.275
47.8125,-0.285
47.8203125,-0.285
47.828125,-0.285
47.8359375,-0.285
47.84375,-0.295
47.8515625,-0.295
47.859375,-0.295
47.8671875,-0.285
47.875,-0.285
47.8828125,-0.295
47.890625,-0.285
47.8984375,-0.295
47.90625,-0.285
47.9140625,-0.285
47.921875,-0.285
47.9296875,-0.275
47.9375,-0.285
47.9453125,-0.275
47.953125,-0.285
47.9609375,-0.275
47.96875,-0.265
47.9765625,-0.275
47.984375,-0.265
47.9921875,-0.255
48,-0.255
48.0078125,-0.265
48.015625,-0.185
48.0234375,-0.135
48.03125,-0.155
48.0390625,-0.125
48.046875,-0.125
48.0546875,-0.185
48.0625,-0.205
48.0703125,-0.235
48.078125,-0.245
48.0859375,-0.265
48.09375,-0.285
48.1015625,-0.295
48.109375,-0.305
48.1171875,-0.285
48.125,-0.285
48.1328125,-0.275
48.140625,-0.275
48.1484375,-0.265
48.15625,-0.265
48.1640625,-0.295
48.171875,0.055
48.1796875,1.495
48.1875,2.265
48.1953125,1.015
48.203125,-1.425
48.2109375,-1.205
48.21875,-0.785
48.2265625,-0.425
48.234375,-0.205
48.2421875,-0.135
48.25,-0.105
48.2578125,-0.085
48.265625,-0.055
48.2734375,-0.045
48.28125,-0.015
48.2890625,0.005
48.296875,0.015
48.3046875,0.045
48.3125,0.065
48.3203125,0.095
48.328125,0.125
48.3359375,0.165
48.34375,0.215
48.3515625,0.255
48.359375,0.295
48.3671875,0.365
48.375,0.445
48.3828125,0.525
48.390625,0.605
48.3984375,0.695
48.40625,0.765
48.4140625,0.795
48.421875,0.805
48.4296875,0.785
48.4375,0.735
48.4453125,0.635
48.453125,0.495
48.4609375,0.315
48.46875,0.155
48.4765625,0.005
48.484375,-0.135
48.4921875,-0.215
48.5,-0.305
48.5078125,-0.355
48.515625,-0.395
48.5234375,-0.415
48.53125,-0.425
48.5390625,-0.435
48.546875,-0.445
48.5546875,-0.425
48.5625,-0.425
48.5703125,-0.415
48.578125,-0.405
48.5859375,-0.385
48.59375,-0.375
48.6015625,-0.365
48.609375,-0.355
48.6171875,-0.335
48.625,-0.325
48.6328125,-0.325
48.640625,-0.325
48.6484375,-0.315
48.65625,-0.325
48.6640625,-0.325
48.671875,-0.335
48.6796875,-0.345
48.6875,-0.355
48.6953125,-0.355
48.703125,-0.355
48.7109375,-0.355
48.71875,-0.355
48.7265625,-0.365
48.734375,-0.365
48.7421875,-0.355
48.75,-0.345
48.7578125,-0.355
48.765625,-0.355
48.7734375,-0.345
48.78125,-0.345
48.7890625,-0.345
48.796875,-0.345
48.8046875,-0.345
48.8125,-0.345
48.8203125,-0.345
48.828125,-0.335
48.8359375,-0.335
48.84375,-0.325
48.8515625,-0.325
48.859375,-0.335
48.8671875,-0.325
48.875,-0.325
48.8828125,-0.325
48.890625,-0.325
48.8984375,-0.305
48.90625,-0.305
48.9140625,-0.295
48.921875,-0.305
48.9296875,-0.265
48.9375,-0.205
48.9453125,-0.175
48.953125,-0.205
48.9609375,-0.155
48.96875,-0.175
48.9765625,-0.225
48.984375,-0.245
48.9921875,-0.275
49,-0.285
49.0078125,-0.325
49.015625,-0.335
49.0234375,-0.335
49.03125,-0.335
49.0390625,-0.325
49.046875,-0.325
49.0546875,-0.325
49.0625,-0.305
49.0703125,-0.295
49.078125,-0.315
49.0859375,-0.345
49.09375,0.305
49.1015625,1.895
49.109375,2.305
49.1171875,-0.015
49.125,-1.585
49.1328125,-1.165
49.140625,-0.705
49.1484375,-0.375
49.15625,-0.215
49.1640625,-0.175
49.171875,-0.155
49.1796875,-0.125
49.1875,-0.105
49.1953125,-0.085
49.203125,-0.065
49.2109375,-0.035
49.21875,-0.015
49.2265625,0.005
49.234375,0.035
49.2421875,0.065
49.25,0.095
49.2578125,0.135
49.265625,0.185
49.2734375,0.235
49.28125,0.295
49.2890625,0.365
49.296875,0.425
49.3046875,0.505
49.3125,0.585
49.3203125,0.665
49.328125,0.715
49.3359375,0.755
49.34375,0.755
49.3515625,0.725
49.359375,0.655
49.3671875,0.545
49.375,0.405
49.3828125,0.245
49.390625,0.085
49.3984375,-0.035
49.40625,-0.135
49.4140625,-0.235
49.421875,-0.305
49.4296875,-0.345
49.4375,-0.375
49.4453125,-0.395
49.453125,-0.415
49.4609375,-0.415
49.46875,-0.405
49.4765625,-0.395
49.484375,-0.395
49.4921875,-0.385
49.5,-0.365
49.5078125,-0.355
49.515625,-0.345
49.5234375,-0.325
49.53125,-0.295
49.5390625,-0.295
49.546875,-0.285
49.5546875,-0.275
49.5625,-0.265
49.5703125,-0.285
49.578125,-0.285
49.5859375,-0.285
49.59375,-0.285
49.6015625,-0.305
49.609375,-0.305
49.6171875,-0.305
49.625,-0.295
49.6328125,-0.305
49.640625,-0.305
49.6484375,-0.305
49.65625,-0.295
49.6640625,-0.305
49.671875,-0.305
49.6796875,-0.295
49.6875,-0.295
49.6953125,-0.295
49.703125,-0.295
49.7109375,-0.285
49.71875,-0.275
49.7265625,-0.275
49.734375,-0.285
49.7421875,-0.285
49.75,-0.275
49.7578125,-0.265
49.765625,-0.265
49.7734375,-0.265
49.78125,-0.265
49.7890625,-0.255
49.796875,-0.255
49.8046875,-0.245
49.8125,-0.255
49.8203125,-0.235
49.828125,-0.235
49.8359375,-0.235
49.84375,-0.235
49.8515625,-0.205
49.859375,-0.145
49.8671875,-0.105
49.875,-0.145
49.8828125,-0.095
49.890625,-0.105
49.8984375,-0.145
49.90625,-0.155
49.9140625,-0.205
49.921875,-0.205
49.9296875,-0.245
49.9375,-0.255
49.9453125,-0.255
49.953125,-0.255
49.9609375,-0.245
49.96875,-0.235
49.9765625,-0.225
49.984375,-0.225
49.9921875,-0.205
50,-0.235
50.0078125,-0.285
50.015625,0.125
50.0234375,1.605
50.03125,2.365
50.0390625,1.075
50.046875,-1.395
50.0546875,-1.145
50.0625,-0.735
50.0703125,-0.395
50.078125,-0.155
50.0859375,-0.095
50.09375,-0.065
50.1015625,-0.035
50.109375,-0.025
50.1171875,0.005
50.125,0.025
50.1328125,0.045
50.140625,0.065
50.1484375,0.085
50.15625,0.115
50.1640625,0.135
50.171875,0.175
50.1796875,0.215
50.1875,0.245
50.1953125,0.295
50.203125,0.345
50.2109375,0.405
50.21875,0.475
50.2265625,0.575
50.234375,0.665
50.2421875,0.735
50.25,0.805
50.2578125,0.855
50.265625,0.865
50.2734375,0.855
50.28125,0.815
50.2890625,0.705
50.296875,0.585
50.3046875,0.415
50.3125,0.245
50.3203125,0.095
50.328125,-0.035
50.3359375,-0.135
50.34375,-0.215
50.3515625,-0.275
50.359375,-0.305
50.3671875,-0.335
50.375,-0.335
50.3828125,-0.335
50.390625,-0.345
50.3984375,-0.345
50.40625,-0.335
50.4140625,-0.325
50.421875,-0.305
50.4296875,-0.285
50.4375,-0.285
50.4453125,-0.265
50.453125,-0.255
50.4609375,-0.245
50.46875,-0.235
50.4765625,-0.225
50.484375,-0.235
50.4921875,-0.225
50.5,-0.235
50.5078125,-0.235
50.515625,-0.255
50.5234375,-0.255
50.53125,-0.255
50.5390625,-0.265
50.546875,-0.265
50.5546875,-0.265
50.5625,-0.265
50.5703125,-0.265
50.578125,-0.275
50.5859375,-0.265
50.59375,-0.265
50.6015625,-0.265
50.609375,-0.275
50.6171875,-0.255
50.625,-0.265
50.6328125,-0.255
50.640625,-0.255
50.6484375,-0.255
50.65625,-0.245
50.6640625,-0.245
50.671875,-0.245
50.6796875,-0.235
50.6875,-0.235
50.6953125,-0.235
50.703125,-0.235
50.7109375,-0.225
50.71875,-0.215
50.7265625,-0.205
50.734375,-0.135
50.7421875,-0.105
50.75,-0.135
50.7578125,-0.085
50.765625,-0.085
50.7734375,-0.145
50.78125,-0.145
50.7890625,-0.195
50.796875,-0.195
50.8046875,-0.225
50.8125,-0.245
50.8203125,-0.245
50.828125,-0.255
50.8359375,-0.245
50.84375,-0.235
50.8515625,-0.225
50.859375,-0.225
50.8671875,-0.205
50.875,-0.225
50.8828125,-0.255
50.890625,0.175
50.8984375,1.615
50.90625,2.285
50.9140625,0.945
50.921875,-1.435
50.9296875,-1.165
50.9375,-0.755
50.9453125,-0.405
50.953125,-0.175
50.9609375,-0.095
50.96875,-0.075
50.9765625,-0.045
50.984375,-0.035
50.9921875,-0.005
51,0.015
51.0078125,0.025
51.015625,0.055
51.0234375,0.085
51.03125,0.105
51.0390625,0.135
51.046875,0.155
51.0546875,0.195
51.0625,0.235
51.0703125,0.275
51.078125,0.325
51.0859375,0.385
51.09375,0.455
51.1015625,0.535
51.109375,0.615
51.1171875,0.715
51.125,0.785
51.1328125,0.835
51.140625,0.855
51.1484375,0.865
51.15625,0.815
51.1640625,0.745
51.171875,0.595
51.1796875,0.435
51.1875,0.265
51.1953125,0.105
51.203125,-0.025
51.2109375,-0.145
51.21875,-0.235
51.2265625,-0.295
51.234375,-0.345
51.2421875,-0.355
51.25,-0.385
51.2578125,-0.405
51.265625,-0.405
51.2734375,-0.395
51.28125,-0.385
51.2890625,-0.385
51.296875,-0.375
51.3046875,-0.365
51.3125,-0.345
51.3203125,-0.335
51.328125,-0.325
51.3359375,-0.305
51.34375,-0.295
51.3515625,-0.285
51.359375,-0.285
51.3671875,-0.285
51.375,-0.285
51.3828125,-0.295
51.390625,-0.305
51.3984375,-0.315
51.40625,-0.315
51.4140625,-0.315
51.421875,-0.325
51.4296875,-0.325
51.4375,-0.325
51.4453125,-0.325
51.453125,-0.325
51.4609375,-0.325
51.46875,-0.325
51.4765625,-0.325
51.484375,-0.325
51.4921875,-0.325
51.5,-0.325
51.5078125,-0.325
51.515625,-0.315
51.5234375,-0.325
51.53125,-0.315
51.5390625,-0.315
51.546875,-0.315
51.5546875,-0.315
51.5625,-0.315
51.5703125,-0.305
51.578125,-0.305
51.5859375,-0.305
51.59375,-0.295
51.6015625,-0.295
51.609375,-0.295
51.6171875,-0.285
51.625,-0.285
51.6328125,-0.215
51.640625,-0.165
51.6484375,-0.155
51.65625,-0.165
51.6640625,-0.135
51.671875,-0.175
51.6796875,-0.215
51.6875,-0.235
51.6953125,-0.265
51.703125,-0.275
51.7109375,-0.305
51.71875,-0.325
51.7265625,-0.325
51.734375,-0.325
51.7421875,-0.325
51.75,-0.315
51.7578125,-0.305
51.765625,-0.305
51.7734375,-0.285
51.78125,-0.295
51.7890625,-0.335
51.796875,-0.025
51.8046875,1.425
51.8125,2.305
51.8203125,1.245
51.828125,-1.405
51.8359375,-1.315
51.84375,-0.875
51.8515625,-0.475
51.859375,-0.235
51.8671875,-0.175
51.875,-0.155
51.8828125,-0.125
51.890625,-0.105
51.8984375,-0.075
51.90625,-0.055
51.9140625,-0.035
51.921875,-0.025
51.9296875,0.005
51.9375,0.035
51.9453125,0.065
51.953125,0.085
51.9609375,0.125
51.96875,0.155
51.9765625,0.205
51.984375,0.255
51.9921875,0.315
52,0.375
52.0078125,0.445
52.015625,0.525
52.0234375,0.615
52.03125,0.665
52.0390625,0.715
52.046875,0.725
52.0546875,0.745
52.0625,0.705
52.0703125,0.625
52.078125,0.495
52.0859375,0.355
52.09375,0.195
52.1015625,0.045
52.109375,-0.075
52.1171875,-0.175
52.125,-0.255
52.1328125,-0.325
52.140625,-0.355
52.1484375,-0.375
52.15625,-0.405
52.1640625,-0.405
52.171875,-0.415
52.1796875,-0.415
52.1875,-0.395
52.1953125,-0.385
52.203125,-0.385
52.2109375,-0.365
52.21875,-0.355
52.2265625,-0.335
52.234375,-0.325
52.2421875,-0.305
52.25,-0.295
52.2578125,-0.295
52.265625,-0.295
52.2734375,-0.285
52.28125,-0.285
52.2890625,-0.285
52.296875,-0.305
52.3046875,-0.305
52.3125,-0.315
52.3203125,-0.325
52.328125,-0.325
52.3359375,-0.325
52.34375,-0.325
52.3515625,-0.325
52.359375,-0.325
52.3671875,-0.325
52.375,-0.325
52.3828125,-0.325
52.390625,-0.315
52.3984375,-0.325
52.40625,-0.325
52.4140625,-0.305
52.421875,-0.315
52.4296875,-0.305
52.4375,-0.315
52.4453125,-0.315
52.453125,-0.315
52.4609375,-0.305
52.46875,-0.305
52.4765625,-0.305
52.484375,-0.305
52.4921875,-0.295
52.5,-0.295
52.5078125,-0.285
52.515625,-0.295
52.5234375,-0.285
52.53125,-0.275
52.5390625,-0.275
52.546875,-0.275
52.5546875,-0.275
52.5625,-0.195
52.5703125,-0.155
52.578125,-0.155
52.5859375,-0.145
52.59375,-0.115
52.6015625,-0.175
52.609375,-0.195
52.6171875,-0.225
52.625,-0.245
52.6328125,-0.265
52.640625,-0.295
52.6484375,-0.305
52.65625,-0.305
52.6640625,-0.305
52.671875,-0.305
52.6796875,-0.295
52.6875,-0.275
52.6953125,-0.265
52.703125,-0.265
52.7109375,-0.295
52.71875,-0.295
52.7265625,0.475
52.734375,1.955
52.7421875,2.345
52.75,0.135
52.7578125,-1.525
52.765625,-1.115
52.7734375,-0.635
52.78125,-0.295
52.7890625,-0.165
52.796875,-0.135
52.8046875,-0.095
52.8125,-0.075
52.8203125,-0.065
52.828125,-0.045
52.8359375,-0.025
52.84375,-0.005
52.8515625,0.035
52.859375,0.045
52.8671875,0.085
52.875,0.105
52.8828125,0.135
52.890625,0.175
52.8984375,0.225
52.90625,0.275
52.9140625,0.315
52.921875,0.385
52.9296875,0.465
52.9375,0.545
52.9453125,0.615
52.953125,0.715
52.9609375,0.775
52.96875,0.815
52.9765625,0.825
52.984375,0.795
52.9921875,0.735
53,0.645
53.0078125,0.505
53.015625,0.335
53.0234375,0.165
53.03125,0.025
53.0390625,-0.095
53.046875,-0.185
53.0546875,-0.255
53.0625,-0.305
53.0703125,-0.345
53.078125,-0.365
53.0859375,-0.365
53.09375,-0.365
53.1015625,-0.365
53.109375,-0.365
53.1171875,-0.345
53.125,-0.325
53.1328125,-0.315
53.140625,-0.295
53.1484375,-0.285
53.15625,-0.275
53.1640625,-0.265
53.171875,-0.255
53.1796875,-0.245
53.1875,-0.235
53.1953125,-0.235
53.203125,-0.245
53.2109375,-0.245
53.21875,-0.255
53.2265625,-0.265
53.234375,-0.275
53.2421875,-0.275
53.25,-0.265
53.2578125,-0.275
53.265625,-0.275
53.2734375,-0.275
53.28125,-0.285
53.2890625,-0.285
53.296875,-0.285
53.3046875,-0.275
53.3125,-0.275
53.3203125,-0.285
53.328125,-0.275
53.3359375,-0.265
53.34375,-0.265
53.3515625,-0.265
53.359375,-0.265
53.3671875,-0.265
53.375,-0.265
53.3828125,-0.245
53.390625,-0.255
53.3984375,-0.245
53.40625,-0.235
53.4140625,-0.235
53.421875,-0.235
53.4296875,-0.225
53.4375,-0.235
53.4453125,-0.225
53.453125,-0.225
53.4609375,-0.165
53.46875,-0.115
53.4765625,-0.095
53.484375,-0.115
53.4921875,-0.075
53.5,-0.105
53.5078125,-0.155
53.515625,-0.175
53.5234375,-0.205
53.53125,-0.205
53.5390625,-0.235
53.546875,-0.245
53.5546875,-0.235
53.5625,-0.245
53.5703125,-0.235
53.578125,-0.235
53.5859375,-0.225
53.59375,-0.215
53.6015625,-0.215
53.609375,-0.255
53.6171875,-0.265
53.625,0.465
53.6328125,1.995
53.640625,2.315
53.6484375,0.025
53.65625,-1.415
53.6640625,-1.035
53.671875,-0.675
53.6796875,-0.335
53.6875,-0.135
53.6953125,-0.095
53.703125,-0.075
53.7109375,-0.035
53.71875,-0.015
53.7265625,0.005
53.734375,0.025
53.7421875,0.045
53.75,0.075
53.7578125,0.095
53.765625,0.115
53.7734375,0.145
53.78125,0.175
53.7890625,0.215
53.796875,0.265
53.8046875,0.315
53.8125,0.375
53.8203125,0.455
53.828125,0.535
53.8359375,0.625
53.84375,0.725
53.8515625,0.795
53.859375,0.835
53.8671875,0.865
53.875,0.865
53.8828125,0.835
53.890625,0.735
53.8984375,0.585
53.90625,0.405
53.9140625,0.225
53.921875,0.085
53.9296875,-0.045
53.9375,-0.165
53.9453125,-0.235
53.953125,-0.285
53.9609375,-0.325
53.96875,-0.355
53.9765625,-0.365
53.984375,-0.365
53.9921875,-0.375
54,-0.365
54.0078125,-0.355
54.015625,-0.345
54.0234375,-0.345
54.03125,-0.325
54.0390625,-0.305
54.046875,-0.295
54.0546875,-0.285
54.0625,-0.275
54.0703125,-0.265
54.078125,-0.265
54.0859375,-0.255
54.09375,-0.245
54.1015625,-0.265
54.109375,-0.275
54.1171875,-0.275
54.125,-0.275
54.1328125,-0.285
54.140625,-0.285
54.1484375,-0.295
54.15625,-0.295
54.1640625,-0.295
54.171875,-0.295
54.1796875,-0.295
54.1875,-0.305
54.1953125,-0.305
54.203125,-0.295
54.2109375,-0.305
54.21875,-0.295
54.2265625,-0.295
54.234375,-0.295
54.2421875,-0.295
54.25,-0.285
54.2578125,-0.285
54.265625,-0.285
54.2734375,-0.285
54.28125,-0.285
54.2890625,-0.275
54.296875,-0.285
54.3046875,-0.275
54.3125,-0.275
54.3203125,-0.275
54.328125,-0.265
54.3359375,-0.265
54.34375,-0.255
54.3515625,-0.255
54.359375,-0.215
54.3671875,-0.145
54.375,-0.135
54.3828125,-0.155
54.390625,-0.115
54.3984375,-0.145
54.40625,-0.175
54.4140625,-0.195
54.421875,-0.235
54.4296875,-0.235
54.4375,-0.275
54.4453125,-0.285
54.453125,-0.295
54.4609375,-0.285
54.46875,-0.285
54.4765625,-0.285
54.484375,-0.285
54.4921875,-0.265
54.5,-0.245
54.5078125,-0.285
54.515625,-0.235
54.5234375,0.905
54.53125,2.265
54.5390625,2.235
54.546875,-0.835
54.5546875,-1.475
54.5625,-0.985
54.5703125,-0.565
54.578125,-0.265
54.5859375,-0.165
54.59375,-0.125
54.6015625,-0.095
54.609375,-0.075
54.6171875,-0.045
54.625,-0.045
54.6328125,-0.005
54.640625,0.015
54.6484375,0.045
54.65625,0.065
54.6640625,0.085
54.671875,0.115
54.6796875,0.155
54.6875,0.185
54.6953125,0.235
54.703125,0.305
54.7109375,0.365
54.71875,0.425
54.7265625,0.515
54.734375,0.595
54.7421875,0.675
54.75,0.765
54.7578125,0.815
54.765625,0.835
54.7734375,0.835
54.78125,0.805
54.7890625,0.735
54.796875,0.615
54.8046875,0.465
54.8125,0.295
54.8203125,0.145
54.828125,0.015
54.8359375,-0.105
54.84375,-0.195
54.8515625,-0.255
54.859375,-0.315
54.8671875,-0.335
54.875,-0.365
54.8828125,-0.385
54.890625,-0.385
54.8984375,-0.385
54.90625,-0.365
54.9140625,-0.365
54.921875,-0.365
54.9296875,-0.345
54.9375,-0.335
54.9453125,-0.315
54.953125,-0.295
54.9609375,-0.295
54.96875,-0.265
54.9765625,-0.255
54.984375,-0.255
54.9921875,-0.245
55,-0.255
55.0078125,-0.265
55.015625,-0.265
55.0234375,-0.265
55.03125,-0.285
55.0390625,-0.285
55.046875,-0.295
55.0546875,-0.295
55.0625,-0.305
55.0703125,-0.295
55.078125,-0.295
55.0859375,-0.305
55.09375,-0.295
55.1015625,-0.295
55.109375,-0.285
55.1171875,-0.295
55.125,-0.305
55.1328125,-0.295
55.140625,-0.285
55.1484375,-0.285
55.15625,-0.275
55.1640625,-0.295
55.171875,-0.285
55.1796875,-0.275
55.1875,-0.275
55.1953125,-0.275
55.203125,-0.275
55.2109375,-0.255
55.21875,-0.265
55.2265625,-0.255
55.234375,-0.255
55.2421875,-0.265
55.25,-0.255
55.2578125,-0.255
55.265625,-0.255
55.2734375,-0.215
55.28125,-0.135
55.2890625,-0.115
55.296875,-0.145
55.3046875,-0.095
55.3125,-0.125
55.3203125,-0.165
55.328125,-0.195
55.3359375,-0.225
55.34375,-0.235
55.3515625,-0.275
55.359375,-0.295
55.3671875,-0.295
55.375,-0.285
55.3828125,-0.275
55.390625,-0.285
55.3984375,-0.265
55.40625,-0.255
55.4140625,-0.245
55.421875,-0.295
55.4296875,-0.245
55.4375,0.785
55.4453125,2.095
55.453125,2.255
55.4609375,-0.615
55.46875,-1.485
55.4765625,-0.995
55.484375,-0.515
55.4921875,-0.215
55.5,-0.135
55.5078125,-0.115
55.515625,-0.105
55.5234375,-0.075
55.53125,-0.045
55.5390625,-0.035
55.546875,-0.015
55.5546875,0.005
55.5625,0.035
55.5703125,0.055
55.578125,0.075
55.5859375,0.105
55.59375,0.145
55.6015625,0.175
55.609375,0.215
55.6171875,0.275
55.625,0.325
55.6328125,0.375
55.640625,0.445
55.6484375,0.525
55.65625,0.605
55.6640625,0.685
55.671875,0.745
55.6796875,0.775
55.6875,0.785
55.6953125,0.765
55.703125,0.695
55.7109375,0.625
55.71875,0.485
55.7265625,0.325
55.734375,0.175
55.7421875,0.055
55.75,-0.075
55.7578125,-0.175
55.765625,-0.245
55.7734375,-0.295
55.78125,-0.325
55.7890625,-0.345
55.796875,-0.365
55.8046875,-0.355
55.8125,-0.355
55.8203125,-0.355
55.828125,-0.345
55.8359375,-0.335
55.84375,-0.325
55.8515625,-0.315
55.859375,-0.295
55.8671875,-0.285
55.875,-0.275
55.8828125,-0.265
55.890625,-0.255
55.8984375,-0.255
55.90625,-0.255
55.9140625,-0.255
55.921875,-0.265
55.9296875,-0.265
55.9375,-0.265
55.9453125,-0.275
55.953125,-0.285
55.9609375,-0.295
55.96875,-0.295
55.9765625,-0.295
55.984375,-0.305
55.9921875,-0.295
56,-0.295
56.0078125,-0.295
56.015625,-0.305
56.0234375,-0.285
56.03125,-0.285
56.0390625,-0.285
56.046875,-0.295
56.0546875,-0.295
56.0625,-0.285
56.0703125,-0.275
56.078125,-0.275
56.0859375,-0.275
56.09375,-0.285
56.1015625,-0.285
56.109375,-0.265
56.1171875,-0.265
56.125,-0.275
56.1328125,-0.275
56.140625,-0.265
56.1484375,-0.245
56.15625,-0.245
56.1640625,-0.255
56.171875,-0.165
56.1796875,-0.115
56.1875,-0.145
56.1953125,-0.115
56.203125,-0.105
56.2109375,-0.155
56.21875,-0.165
56.2265625,-0.205
56.234375,-0.225
56.2421875,-0.255
56.25,-0.275
56.2578125,-0.275
56.265625,-0.285
56.2734375,-0.265
56.28125,-0.265
56.2890625,-0.255
56.296875,-0.245
56.3046875,-0.235
56.3125,-0.265
56.3203125,-0.325
56.328125,0.265
56.3359375,1.855
56.34375,2.375
56.3515625,0.535
56.359375,-1.495
56.3671875,-1.135
56.375,-0.745
56.3828125,-0.415
56.390625,-0.185
56.3984375,-0.115
56.40625,-0.095
56.4140625,-0.065
56.421875,-0.055
56.4296875,-0.025
56.4375,-0.005
56.4453125,0.025
56.453125,0.045
56.4609375,0.065
56.46875,0.095
56.4765625,0.115
56.484375,0.145
56.4921875,0.185
56.5,0.215
56.5078125,0.265
56.515625,0.325
56.5234375,0.375
56.53125,0.455
56.5390625,0.545
56.546875,0.615
56.5546875,0.705
56.5625,0.755
56.5703125,0.805
