Time,Signal_uV
0,-0.005
0.0078125,0.005
0.015625,-0.005
0.0234375,-0.015
0.03125,-0.025
0.0390625,-0.075
0.046875,-0.145
0.0546875,-0.165
0.0625,-0.175
0.0703125,-0.165
0.078125,-0.175
0.0859375,-0.175
0.09375,-0.175
0.1015625,-0.155
0.109375,-0.155
0.1171875,-0.145
0.125,-0.055
0.1328125,0.255
0.140625,0.635
0.1484375,0.855
0.15625,0.105
0.1640625,-0.355
0.171875,-0.305
0.1796875,-0.185
0.1875,-0.145
0.1953125,-0.145
0.203125,-0.145
0.2109375,-0.155
0.21875,-0.125
0.2265625,-0.115
0.234375,-0.115
0.2421875,-0.095
0.25,-0.085
0.2578125,-0.075
0.265625,-0.065
0.2734375,-0.055
0.28125,-0.025
0.2890625,-0.005
0.296875,0.025
0.3046875,0.055
0.3125,0.095
0.3203125,0.125
0.328125,0.155
0.3359375,0.195
0.34375,0.215
0.3515625,0.215
0.359375,0.225
0.3671875,0.225
0.375,0.205
0.3828125,0.175
0.390625,0.125
0.3984375,0.095
0.40625,0.035
0.4140625,-0.005
0.421875,-0.045
0.4296875,-0.075
0.4375,-0.105
0.4453125,-0.115
0.453125,-0.125
0.4609375,-0.125
0.46875,-0.115
0.4765625,-0.125
0.484375,-0.115
0.4921875,-0.105
0.5,-0.105
0.5078125,-0.105
0.515625,-0.115
0.5234375,-0.105
0.53125,-0.095
0.5390625,-0.095
0.546875,-0.085
0.5546875,-0.085
0.5625,-0.095
0.5703125,-0.095
0.578125,-0.105
0.5859375,-0.105
0.59375,-0.105
0.6015625,-0.105
0.609375,-0.105
0.6171875,-0.105
0.625,-0.115
0.6328125,-0.125
0.640625,-0.125
0.6484375,-0.115
0.65625,-0.125
0.6640625,-0.115
0.671875,-0.115
0.6796875,-0.115
0.6875,-0.125
0.6953125,-0.115
0.703125,-0.115
0.7109375,-0.115
0.71875,-0.105
0.7265625,-0.115
0.734375,-0.105
0.7421875,-0.105
0.75,-0.065
0.7578125,-0.055
0.765625,-0.055
0.7734375,-0.045
0.78125,0.005
0.7890625,0.035
0.796875,0.015
0.8046875,0.015
0.8125,-0.005
0.8203125,-0.065
0.828125,-0.125
0.8359375,-0.155
0.84375,-0.145
0.8515625,-0.135
0.859375,-0.155
0.8671875,-0.155
0.875,-0.145
0.8828125,-0.145
0.890625,-0.145
0.8984375,-0.135
0.90625,-0.015
0.9140625,0.345
0.921875,0.755
0.9296875,0.715
0.9375,-0.095
0.9453125,-0.395
0.953125,-0.295
0.9609375,-0.185
0.96875,-0.155
0.9765625,-0.155
0.984375,-0.145
0.9921875,-0.145
1,-0.135
1.0078125,-0.125
1.015625,-0.115
1.0234375,-0.105
1.03125,-0.085
1.0390625,-0.055
1.046875,-0.055
1.0546875,-0.035
1.0625,-0.015
1.0703125,0.015
1.078125,0.035
1.0859375,0.065
1.09375,0.105
1.1015625,0.145
1.109375,0.175
1.1171875,0.215
1.125,0.225
1.1328125,0.235
1.140625,0.225
1.1484375,0.235
1.15625,0.215
1.1640625,0.205
1.171875,0.175
1.1796875,0.125
1.1875,0.075
1.1953125,0.025
1.203125,-0.025
1.2109375,-0.055
1.21875,-0.065
1.2265625,-0.095
1.234375,-0.085
1.2421875,-0.095
1.25,-0.105
1.2578125,-0.105
1.265625,-0.105
1.2734375,-0.095
1.28125,-0.095
1.2890625,-0.085
1.296875,-0.075
1.3046875,-0.075
1.3125,-0.075
1.3203125,-0.075
1.328125,-0.085
1.3359375,-0.065
1.34375,-0.075
1.3515625,-0.075
1.359375,-0.075
1.3671875,-0.085
1.375,-0.085
1.3828125,-0.085
1.390625,-0.095
1.3984375,-0.105
1.40625,-0.105
1.4140625,-0.105
1.421875,-0.105
1.4296875,-0.105
1.4375,-0.115
1.4453125,-0.115
1.453125,-0.125
1.4609375,-0.115
1.46875,-0.115
1.4765625,-0.105
1.484375,-0.105
1.4921875,-0.115
1.5,-0.105
1.5078125,-0.085
1.515625,-0.055
1.5234375,-0.055
1.53125,-0.045
1.5390625,-0.005
1.546875,0.015
1.5546875,0.035
1.5625,0.005
1.5703125,-0.005
1.578125,-0.025
1.5859375,-0.105
1.59375,-0.135
1.6015625,-0.145
1.609375,-0.155
1.6171875,-0.155
1.625,-0.165
1.6328125,-0.155
1.640625,-0.155
1.6484375,-0.155
1.65625,-0.135
1.6640625,-0.135
1.671875,-0.025
1.6796875,0.305
1.6875,0.715
1.6953125,0.755
1.703125,-0.075
1.7109375,-0.375
1.71875,-0.245
1.7265625,-0.145
1.734375,-0.135
1.7421875,-0.145
1.75,-0.135
1.7578125,-0.125
1.765625,-0.115
1.7734375,-0.105
1.78125,-0.095
1.7890625,-0.065
1.796875,-0.065
1.8046875,-0.045
1.8125,-0.035
1.8203125,-0.015
1.828125,0.005
1.8359375,0.015
1.84375,0.045
1.8515625,0.085
1.859375,0.115
1.8671875,0.155
1.875,0.185
1.8828125,0.215
1.890625,0.235
1.8984375,0.235
1.90625,0.235
1.9140625,0.235
1.921875,0.225
1.9296875,0.195
1.9375,0.155
1.9453125,0.105
1.953125,0.045
1.9609375,-0.005
1.96875,-0.035
1.9765625,-0.075
1.984375,-0.085
1.9921875,-0.095
2,-0.105
2.0078125,-0.115
2.015625,-0.125
2.0234375,-0.115
2.03125,-0.105
2.0390625,-0.105
2.046875,-0.105
2.0546875,-0.095
2.0625,-0.095
2.0703125,-0.095
2.078125,-0.105
2.0859375,-0.085
2.09375,-0.095
2.1015625,-0.085
2.109375,-0.095
2.1171875,-0.095
2.125,-0.095
2.1328125,-0.105
2.140625,-0.115
2.1484375,-0.105
2.15625,-0.105
2.1640625,-0.115
2.171875,-0.115
2.1796875,-0.115
2.1875,-0.115
2.1953125,-0.115
2.203125,-0.125
2.2109375,-0.115
2.21875,-0.115
2.2265625,-0.115
2.234375,-0.115
2.2421875,-0.115
2.25,-0.115
2.2578125,-0.115
2.265625,-0.125
2.2734375,-0.105
2.28125,-0.095
2.2890625,-0.065
2.296875,-0.045
2.3046875,-0.045
2.3125,-0.035
2.3203125,-0.005
2.328125,0.025
2.3359375,0.025
2.34375,0.015
2.3515625,0.015
2.359375,-0.035
2.3671875,-0.105
2.375,-0.135
2.3828125,-0.145
2.390625,-0.145
2.3984375,-0.145
2.40625,-0.145
2.4140625,-0.135
2.421875,-0.135
2.4296875,-0.125
2.4375,-0.125
2.4453125,-0.085
2.453125,0.125
2.4609375,0.455
2.46875,0.815
2.4765625,0.585
2.484375,-0.105
2.4921875,-0.305
2.5,-0.205
2.5078125,-0.115
2.515625,-0.115
2.5234375,-0.115
2.53125,-0.105
2.5390625,-0.095
2.546875,-0.095
2.5546875,-0.075
2.5625,-0.075
2.5703125,-0.055
2.578125,-0.055
2.5859375,-0.045
2.59375,-0.025
2.6015625,-0.005
2.609375,0.005
2.6171875,0.025
2.625,0.045
2.6328125,0.075
2.640625,0.105
2.6484375,0.125
2.65625,0.175
2.6640625,0.205
2.671875,0.235
2.6796875,0.245
2.6875,0.245
2.6953125,0.255
2.703125,0.235
2.7109375,0.205
2.71875,0.185
2.7265625,0.135
2.734375,0.085
2.7421875,0.025
2.75,-0.015
2.7578125,-0.065
2.765625,-0.085
2.7734375,-0.115
2.78125,-0.115
2.7890625,-0.115
2.796875,-0.125
2.8046875,-0.115
2.8125,-0.125
2.8203125,-0.125
2.828125,-0.125
2.8359375,-0.125
2.84375,-0.115
2.8515625,-0.105
2.859375,-0.115
2.8671875,-0.105
2.875,-0.105
2.8828125,-0.105
2.890625,-0.115
2.8984375,-0.115
2.90625,-0.115
2.9140625,-0.105
2.921875,-0.105
2.9296875,-0.115
2.9375,-0.115
2.9453125,-0.125
2.953125,-0.125
2.9609375,-0.125
2.96875,-0.125
2.9765625,-0.125
2.984375,-0.115
2.9921875,-0.125
3,-0.125
3.0078125,-0.125
3.015625,-0.125
3.0234375,-0.115
3.03125,-0.115
3.0390625,-0.115
3.046875,-0.115
3.0546875,-0.115
3.0625,-0.115
3.0703125,-0.115
3.078125,-0.115
3.0859375,-0.065
3.09375,-0.055
3.1015625,-0.055
3.109375,-0.035
3.1171875,-0.015
3.125,0.025
3.1328125,0.015
3.140625,-0.005
3.1484375,-0.015
3.15625,-0.065
3.1640625,-0.125
3.171875,-0.155
3.1796875,-0.155
3.1875,-0.145
3.1953125,-0.155
3.203125,-0.155
3.2109375,-0.165
3.21875,-0.155
3.2265625,-0.135
3.234375,-0.135
3.2421875,-0.095
3.25,0.175
3.2578125,0.545
3.265625,0.835
3.2734375,0.215
3.28125,-0.325
3.2890625,-0.305
3.296875,-0.175
3.3046875,-0.135
3.3125,-0.135
3.3203125,-0.135
3.328125,-0.135
3.3359375,-0.115
3.34375,-0.115
3.3515625,-0.105
3.359375,-0.085
3.3671875,-0.075
3.375,-0.075
3.3828125,-0.065
3.390625,-0.055
3.3984375,-0.015
3.40625,0.005
3.4140625,0.025
3.421875,0.065
3.4296875,0.105
3.4375,0.125
3.4453125,0.155
3.453125,0.185
3.4609375,0.215
3.46875,0.235
3.4765625,0.235
3.484375,0.235
3.4921875,0.225
3.5,0.195
3.5078125,0.155
3.515625,0.105
3.5234375,0.055
3.53125,0.015
3.5390625,-0.035
3.546875,-0.065
3.5546875,-0.115
3.5625,-0.135
3.5703125,-0.145
3.578125,-0.155
3.5859375,-0.145
3.59375,-0.135
3.6015625,-0.145
3.609375,-0.135
3.6171875,-0.135
3.625,-0.125
3.6328125,-0.115
3.640625,-0.135
3.6484375,-0.115
3.65625,-0.115
3.6640625,-0.125
3.671875,-0.115
3.6796875,-0.105
3.6875,-0.115
3.6953125,-0.115
3.703125,-0.125
3.7109375,-0.125
3.71875,-0.125
3.7265625,-0.125
3.734375,-0.125
3.7421875,-0.125
3.75,-0.135
3.7578125,-0.135
3.765625,-0.145
3.7734375,-0.125
3.78125,-0.125
3.7890625,-0.135
3.796875,-0.125
3.8046875,-0.115
3.8125,-0.095
3.8203125,-0.075
3.828125,-0.085
3.8359375,-0.045
3.84375,-0.035
3.8515625,-0.005
3.859375,0.005
3.8671875,-0.005
3.875,-0.015
3.8828125,-0.075
3.890625,-0.155
3.8984375,-0.165
3.90625,-0.165
3.9140625,-0.155
3.921875,-0.155
3.9296875,-0.155
3.9375,-0.155
3.9453125,-0.155
3.953125,-0.155
3.9609375,-0.165
3.96875,-0.105
3.9765625,0.155
3.984375,0.515
3.9921875,0.845
4,0.335
4.0078125,-0.305
4.015625,-0.365
4.0234375,-0.245
4.03125,-0.155
4.0390625,-0.135
4.046875,-0.145
4.0546875,-0.135
4.0625,-0.125
4.0703125,-0.105
4.078125,-0.095
4.0859375,-0.105
4.09375,-0.075
4.1015625,-0.065
4.109375,-0.055
4.1171875,-0.035
4.125,-0.025
4.1328125,-0.005
4.140625,0.015
4.1484375,0.035
4.15625,0.075
4.1640625,0.115
4.171875,0.145
4.1796875,0.175
4.1875,0.205
4.1953125,0.225
4.203125,0.225
4.2109375,0.225
4.21875,0.215
4.2265625,0.205
4.234375,0.175
4.2421875,0.135
4.25,0.075
4.2578125,0.025
4.265625,-0.025
4.2734375,-0.065
4.28125,-0.085
4.2890625,-0.115
4.296875,-0.115
4.3046875,-0.135
4.3125,-0.135
4.3203125,-0.125
4.328125,-0.145
4.3359375,-0.125
4.34375,-0.125
4.3515625,-0.115
4.359375,-0.115
4.3671875,-0.105
4.375,-0.105
4.3828125,-0.115
4.390625,-0.115
4.3984375,-0.105
4.40625,-0.105
4.4140625,-0.105
4.421875,-0.105
4.4296875,-0.115
4.4375,-0.115
4.4453125,-0.125
4.453125,-0.125
4.4609375,-0.125
4.46875,-0.125
4.4765625,-0.125
4.484375,-0.125
4.4921875,-0.125
4.5,-0.115
4.5078125,-0.095
4.515625,-0.085
4.5234375,-0.065
4.53125,-0.035
4.5390625,-0.045
4.546875,-0.015
4.5546875,-0.005
4.5625,-0.025
4.5703125,-0.035
4.578125,-0.075
4.5859375,-0.125
4.59375,-0.145
4.6015625,-0.145
4.609375,-0.145
4.6171875,-0.135
4.625,-0.155
4.6328125,-0.135
4.640625,-0.145
4.6484375,-0.125
4.65625,-0.085
4.6640625,0.145
4.671875,0.515
4.6796875,0.885
4.6875,0.425
4.6953125,-0.275
4.703125,-0.375
4.7109375,-0.215
4.71875,-0.135
4.7265625,-0.135
4.734375,-0.135
4.7421875,-0.125
4.75,-0.125
4.7578125,-0.105
4.765625,-0.105
4.7734375,-0.095
4.78125,-0.075
4.7890625,-0.065
4.796875,-0.045
4.8046875,-0.035
4.8125,-0.015
4.8203125,0.005
4.828125,0.015
4.8359375,0.055
4.84375,0.075
4.8515625,0.115
4.859375,0.145
4.8671875,0.175
4.875,0.195
4.8828125,0.215
4.890625,0.215
4.8984375,0.225
4.90625,0.215
4.9140625,0.205
4.921875,0.195
4.9296875,0.155
4.9375,0.095
4.9453125,0.045
4.953125,-0.015
4.9609375,-0.045
4.96875,-0.075
4.9765625,-0.105
4.984375,-0.105
4.9921875,-0.115
5,-0.115
5.0078125,-0.105
5.015625,-0.125
5.0234375,-0.105
5.03125,-0.105
5.0390625,-0.105
5.046875,-0.085
5.0546875,-0.095
5.0625,-0.105
5.0703125,-0.095
5.078125,-0.105
5.0859375,-0.105
5.09375,-0.105
5.1015625,-0.105
5.109375,-0.105
5.1171875,-0.115
5.125,-0.125
5.1328125,-0.115
5.140625,-0.135
5.1484375,-0.115
5.15625,-0.125
5.1640625,-0.125
5.171875,-0.115
5.1796875,-0.125
5.1875,-0.115
5.1953125,-0.085
5.203125,-0.065
5.2109375,-0.045
5.21875,-0.025
5.2265625,-0.035
5.234375,0.005
5.2421875,0.005
5.25,-0.015
5.2578125,-0.045
5.265625,-0.095
5.2734375,-0.145
5.28125,-0.165
5.2890625,-0.155
5.296875,-0.145
5.3046875,-0.145
5.3125,-0.145
5.3203125,-0.145
5.328125,-0.135
5.3359375,-0.135
5.34375,-0.065
5.3515625,0.225
5.359375,0.595
5.3671875,0.905
5.375,0.285
5.3828125,-0.315
5.390625,-0.345
5.3984375,-0.165
5.40625,-0.125
5.4140625,-0.125
5.421875,-0.135
5.4296875,-0.115
5.4375,-0.115
5.4453125,-0.105
5.453125,-0.105
5.4609375,-0.085
5.46875,-0.075
5.4765625,-0.055
5.484375,-0.035
5.4921875,-0.025
5.5,-0.005
5.5078125,0.005
5.515625,0.025
5.5234375,0.055
5.53125,0.085
5.5390625,0.115
5.546875,0.155
5.5546875,0.185
5.5625,0.205
5.5703125,0.225
5.578125,0.215
5.5859375,0.225
5.59375,0.215
5.6015625,0.215
5.609375,0.195
5.6171875,0.165
5.625,0.115
5.6328125,0.075
5.640625,0.015
5.6484375,-0.025
5.65625,-0.065
5.6640625,-0.085
5.671875,-0.105
5.6796875,-0.115
5.6875,-0.105
5.6953125,-0.105
5.703125,-0.115
5.7109375,-0.105
5.71875,-0.105
5.7265625,-0.095
5.734375,-0.085
5.7421875,-0.095
5.75,-0.085
5.7578125,-0.095
5.765625,-0.105
5.7734375,-0.095
5.78125,-0.085
5.7890625,-0.085
5.796875,-0.095
5.8046875,-0.095
5.8125,-0.105
5.8203125,-0.105
5.828125,-0.115
5.8359375,-0.115
5.84375,-0.105
5.8515625,-0.105
5.859375,-0.115
5.8671875,-0.115
5.875,-0.095
5.8828125,-0.065
5.890625,-0.055
5.8984375,-0.045
5.90625,-0.025
5.9140625,-0.025
5.921875,0.015
5.9296875,-0.005
5.9375,-0.015
5.9453125,-0.035
5.953125,-0.095
5.9609375,-0.145
5.96875,-0.155
5.9765625,-0.155
5.984375,-0.145
5.9921875,-0.155
6,-0.145
6.0078125,-0.145
6.015625,-0.145
6.0234375,-0.145
6.03125,-0.055
6.0390625,0.265
6.046875,0.635
6.0546875,0.905
6.0625,0.145
6.0703125,-0.345
6.078125,-0.315
6.0859375,-0.155
6.09375,-0.135
6.1015625,-0.135
6.109375,-0.135
6.1171875,-0.125
6.125,-0.115
6.1328125,-0.105
6.140625,-0.105
6.1484375,-0.085
6.15625,-0.075
6.1640625,-0.055
6.171875,-0.035
6.1796875,-0.025
6.1875,-0.015
6.1953125,0.005
6.203125,0.015
6.2109375,0.055
6.21875,0.085
6.2265625,0.115
6.234375,0.155
6.2421875,0.175
6.25,0.195
6.2578125,0.215
6.265625,0.215
6.2734375,0.205
6.28125,0.205
6.2890625,0.195
6.296875,0.175
6.3046875,0.135
6.3125,0.095
6.3203125,0.045
6.328125,-0.015
6.3359375,-0.045
6.34375,-0.065
6.3515625,-0.095
6.359375,-0.095
6.3671875,-0.105
6.375,-0.115
6.3828125,-0.105
6.390625,-0.115
6.3984375,-0.115
6.40625,-0.095
6.4140625,-0.085
6.421875,-0.095
6.4296875,-0.095
6.4375,-0.085
6.4453125,-0.095
6.453125,-0.095
6.4609375,-0.095
6.46875,-0.085
6.4765625,-0.095
6.484375,-0.085
6.4921875,-0.105
6.5,-0.095
6.5078125,-0.095
6.515625,-0.105
6.5234375,-0.105
6.53125,-0.105
6.5390625,-0.095
6.546875,-0.095
6.5546875,-0.105
6.5625,-0.085
6.5703125,-0.045
6.578125,-0.045
6.5859375,-0.035
6.59375,-0.025
6.6015625,-0.015
6.609375,0.015
6.6171875,0.005
6.625,-0.005
6.6328125,-0.025
6.640625,-0.115
6.6484375,-0.155
6.65625,-0.155
6.6640625,-0.155
6.671875,-0.145
6.6796875,-0.145
6.6875,-0.145
6.6953125,-0.135
6.703125,-0.145
6.7109375,-0.145
6.71875,-0.035
6.7265625,0.275
6.734375,0.675
6.7421875,0.855
6.75,0.045
6.7578125,-0.375
6.765625,-0.285
6.7734375,-0.145
6.78125,-0.135
6.7890625,-0.145
6.796875,-0.125
6.8046875,-0.125
6.8125,-0.115
6.8203125,-0.105
6.828125,-0.095
6.8359375,-0.085
6.84375,-0.065
6.8515625,-0.055
6.859375,-0.035
6.8671875,-0.015
6.875,-0.005
6.8828125,0.015
6.890625,0.035
6.8984375,0.075
6.90625,0.095
6.9140625,0.125
6.921875,0.155
6.9296875,0.185
6.9375,0.195
6.9453125,0.205
6.953125,0.195
6.9609375,0.195
6.96875,0.185
6.9765625,0.175
6.984375,0.145
6.9921875,0.115
7,0.065
7.0078125,0.015
7.015625,-0.045
7.0234375,-0.065
7.03125,-0.095
7.0390625,-0.105
7.046875,-0.105
7.0546875,-0.115
7.0625,-0.115
7.0703125,-0.115
7.078125,-0.125
7.0859375,-0.115
7.09375,-0.105
7.1015625,-0.105
7.109375,-0.105
7.1171875,-0.105
7.125,-0.115
7.1328125,-0.105
7.140625,-0.115
7.1484375,-0.115
7.15625,-0.115
7.1640625,-0.115
7.171875,-0.115
7.1796875,-0.115
7.1875,-0.115
7.1953125,-0.115
7.203125,-0.125
7.2109375,-0.135
7.21875,-0.125
7.2265625,-0.125
7.234375,-0.105
7.2421875,-0.085
7.25,-0.075
7.2578125,-0.055
7.265625,-0.055
7.2734375,-0.045
7.28125,-0.015
7.2890625,-0.035
7.296875,-0.045
7.3046875,-0.075
7.3125,-0.135
7.3203125,-0.185
7.328125,-0.185
7.3359375,-0.185
7.34375,-0.175
7.3515625,-0.175
7.359375,-0.165
7.3671875,-0.155
7.375,-0.175
7.3828125,-0.155
7.390625,0.045
7.3984375,0.445
7.40625,0.825
7.4140625,0.375
7.421875,-0.305
7.4296875,-0.395
7.4375,-0.265
7.4453125,-0.165
7.453125,-0.165
7.4609375,-0.155
7.46875,-0.145
7.4765625,-0.135
7.484375,-0.115
7.4921875,-0.105
7.5,-0.105
7.5078125,-0.085
7.515625,-0.085
7.5234375,-0.065
7.53125,-0.045
7.5390625,-0.035
7.546875,-0.005
7.5546875,0.005
7.5625,0.035
7.5703125,0.055
7.578125,0.085
7.5859375,0.115
7.59375,0.145
7.6015625,0.175
7.609375,0.195
7.6171875,0.195
7.625,0.195
7.6328125,0.185
7.640625,0.165
7.6484375,0.155
7.65625,0.125
7.6640625,0.075
7.671875,0.025
7.6796875,-0.015
7.6875,-0.055
7.6953125,-0.085
7.703125,-0.115
7.7109375,-0.115
7.71875,-0.125
7.7265625,-0.135
7.734375,-0.115
7.7421875,-0.115
7.75,-0.115
7.7578125,-0.125
7.765625,-0.125
7.7734375,-0.115
7.78125,-0.115
7.7890625,-0.115
7.796875,-0.105
7.8046875,-0.115
7.8125,-0.115
7.8203125,-0.115
7.828125,-0.125
7.8359375,-0.115
7.84375,-0.115
7.8515625,-0.115
7.859375,-0.115
7.8671875,-0.115
7.875,-0.115
7.8828125,-0.085
7.890625,-0.075
7.8984375,-0.055
7.90625,-0.045
7.9140625,-0.025
7.921875,-0.015
7.9296875,-0.015
7.9375,-0.035
7.9453125,-0.055
7.953125,-0.115
7.9609375,-0.175
7.96875,-0.175
7.9765625,-0.175
7.984375,-0.165
7.9921875,-0.175
8,-0.175
8.0078125,-0.165
8.015625,-0.165
8.0234375,-0.175
8.03125,-0.095
8.0390625,0.245
8.046875,0.625
8.0546875,0.825
8.0625,0.115
8.0703125,-0.345
8.078125,-0.325
8.0859375,-0.205
8.09375,-0.145
8.1015625,-0.135
8.109375,-0.145
8.1171875,-0.125
8.125,-0.125
8.1328125,-0.105
8.140625,-0.095
8.1484375,-0.095
8.15625,-0.075
8.1640625,-0.055
8.171875,-0.045
8.1796875,-0.035
8.1875,-0.015
8.1953125,0.005
8.203125,0.025
8.2109375,0.045
8.21875,0.085
8.2265625,0.125
8.234375,0.155
8.2421875,0.175
8.25,0.195
8.2578125,0.195
8.265625,0.195
8.2734375,0.185
8.28125,0.185
8.2890625,0.175
8.296875,0.155
8.3046875,0.115
8.3125,0.065
8.3203125,0.025
8.328125,-0.035
8.3359375,-0.055
8.34375,-0.065
8.3515625,-0.085
8.359375,-0.095
8.3671875,-0.095
8.375,-0.095
8.3828125,-0.095
8.390625,-0.095
8.3984375,-0.085
8.40625,-0.085
8.4140625,-0.085
8.421875,-0.075
8.4296875,-0.075
8.4375,-0.085
8.4453125,-0.085
8.453125,-0.095
8.4609375,-0.085
8.46875,-0.085
8.4765625,-0.095
8.484375,-0.075
8.4921875,-0.085
8.5,-0.095
8.5078125,-0.095
8.515625,-0.095
8.5234375,-0.075
8.53125,-0.055
8.5390625,-0.025
8.546875,-0.005
8.5546875,-0.005
8.5625,0.005
8.5703125,0.035
8.578125,-0.005
8.5859375,-0.025
8.59375,-0.045
8.6015625,-0.105
8.609375,-0.145
8.6171875,-0.135
8.625,-0.145
8.6328125,-0.135
8.640625,-0.155
8.6484375,-0.145
8.65625,-0.135
8.6640625,-0.135
8.671875,-0.115
8.6796875,0.095
8.6875,0.475
8.6953125,0.875
8.703125,0.605
8.7109375,-0.205
8.71875,-0.385
8.7265625,-0.225
8.734375,-0.135
8.7421875,-0.135
8.75,-0.145
8.7578125,-0.135
8.765625,-0.135
8.7734375,-0.125
8.78125,-0.105
8.7890625,-0.105
8.796875,-0.085
8.8046875,-0.075
8.8125,-0.055
8.8203125,-0.035
8.828125,-0.025
8.8359375,-0.015
8.84375,0.015
8.8515625,0.045
8.859375,0.065
8.8671875,0.095
8.875,0.125
8.8828125,0.165
8.890625,0.175
8.8984375,0.195
8.90625,0.205
8.9140625,0.205
8.921875,0.195
8.9296875,0.185
8.9375,0.175
8.9453125,0.135
8.953125,0.085
8.9609375,0.055
8.96875,0.015
8.9765625,-0.035
8.984375,-0.055
8.9921875,-0.085
9,-0.095
9.0078125,-0.105
9.015625,-0.115
9.0234375,-0.105
9.03125,-0.095
9.0390625,-0.085
9.046875,-0.075
9.0546875,-0.075
9.0625,-0.065
9.0703125,-0.075
9.078125,-0.085
9.0859375,-0.075
9.09375,-0.075
9.1015625,-0.075
9.109375,-0.085
9.1171875,-0.075
9.125,-0.085
9.1328125,-0.095
9.140625,-0.105
9.1484375,-0.095
9.15625,-0.105
9.1640625,-0.095
9.171875,-0.095
9.1796875,-0.075
9.1875,-0.055
9.1953125,-0.025
9.203125,-0.025
9.2109375,-0.005
9.21875,0.005
9.2265625,0.035
9.234375,0.015
9.2421875,0.005
9.25,-0.025
9.2578125,-0.075
9.265625,-0.135
9.2734375,-0.145
9.28125,-0.135
9.2890625,-0.135
9.296875,-0.125
9.3046875,-0.135
9.3125,-0.135
9.3203125,-0.125
9.328125,-0.145
9.3359375,-0.045
9.34375,0.235
9.3515625,0.625
9.359375,0.955
9.3671875,0.345
9.375,-0.315
9.3828125,-0.345
9.390625,-0.175
9.3984375,-0.145
9.40625,-0.135
9.4140625,-0.145
9.421875,-0.135
9.4296875,-0.125
9.4375,-0.115
9.4453125,-0.095
9.453125,-0.085
9.4609375,-0.085
9.46875,-0.075
9.4765625,-0.055
9.484375,-0.025
9.4921875,-0.015
9.5,-0.005
9.5078125,0.025
9.515625,0.045
9.5234375,0.065
9.53125,0.105
9.5390625,0.135
9.546875,0.165
9.5546875,0.185
9.5625,0.195
9.5703125,0.205
9.578125,0.195
9.5859375,0.185
9.59375,0.175
9.6015625,0.165
9.609375,0.115
9.6171875,0.085
9.625,0.035
9.6328125,-0.005
9.640625,-0.045
9.6484375,-0.065
9.65625,-0.085
9.6640625,-0.095
9.671875,-0.105
9.6796875,-0.095
9.6875,-0.095
9.6953125,-0.085
9.703125,-0.085
9.7109375,-0.095
9.71875,-0.075
9.7265625,-0.075
9.734375,-0.075
9.7421875,-0.085
9.75,-0.085
9.7578125,-0.075
9.765625,-0.085
9.7734375,-0.095
9.78125,-0.085
9.7890625,-0.095
9.796875,-0.085
9.8046875,-0.105
9.8125,-0.105
9.8203125,-0.105
9.828125,-0.115
9.8359375,-0.105
9.84375,-0.115
9.8515625,-0.075
9.859375,-0.055
9.8671875,-0.045
9.875,-0.045
9.8828125,-0.025
9.890625,-0.025
9.8984375,-0.015
9.90625,-0.025
9.9140625,-0.035
9.921875,-0.095
9.9296875,-0.155
9.9375,-0.165
9.9453125,-0.165
9.953125,-0.185
9.9609375,-0.175
9.96875,-0.175
9.9765625,-0.165
9.984375,-0.165
9.9921875,-0.175
10,-0.145
10.0078125,0.075
10.015625,0.425
10.0234375,0.795
10.03125,0.395
10.0390625,-0.315
10.046875,-0.425
10.0546875,-0.285
10.0625,-0.195
10.0703125,-0.175
10.078125,-0.195
10.0859375,-0.175
10.09375,-0.165
10.1015625,-0.145
10.109375,-0.135
10.1171875,-0.125
10.125,-0.115
10.1328125,-0.095
10.140625,-0.095
10.1484375,-0.075
10.15625,-0.055
10.1640625,-0.035
10.171875,-0.005
10.1796875,0.015
10.1875,0.045
10.1953125,0.085
10.203125,0.105
10.2109375,0.135
10.21875,0.165
10.2265625,0.185
10.234375,0.185
10.2421875,0.185
10.25,0.175
10.2578125,0.175
10.265625,0.145
10.2734375,0.125
10.28125,0.095
10.2890625,0.045
10.296875,-0.005
10.3046875,-0.045
10.3125,-0.085
10.3203125,-0.085
10.328125,-0.115
10.3359375,-0.125
10.34375,-0.115
10.3515625,-0.115
10.359375,-0.115
10.3671875,-0.105
10.375,-0.105
10.3828125,-0.095
10.390625,-0.095
10.3984375,-0.095
10.40625,-0.095
10.4140625,-0.085
10.421875,-0.085
10.4296875,-0.095
10.4375,-0.095
10.4453125,-0.095
10.453125,-0.095
10.4609375,-0.105
10.46875,-0.095
10.4765625,-0.095
10.484375,-0.095
10.4921875,-0.095
10.5,-0.075
10.5078125,-0.045
10.515625,-0.025
10.5234375,-0.015
10.53125,-0.015
10.5390625,0.015
10.546875,0.025
10.5546875,-0.005
10.5625,-0.025
10.5703125,-0.065
10.578125,-0.135
10.5859375,-0.155
10.59375,-0.155
10.6015625,-0.155
10.609375,-0.145
10.6171875,-0.145
10.625,-0.155
10.6328125,-0.125
10.640625,-0.145
10.6484375,-0.055
10.65625,0.275
10.6640625,0.715
10.671875,0.955
10.6796875,0.025
10.6875,-0.365
10.6953125,-0.275
10.703125,-0.165
10.7109375,-0.135
10.71875,-0.145
10.7265625,-0.145
10.734375,-0.125
10.7421875,-0.125
10.75,-0.105
10.7578125,-0.105
10.765625,-0.105
10.7734375,-0.085
10.78125,-0.065
10.7890625,-0.055
10.796875,-0.035
10.8046875,-0.015
10.8125,0.005
10.8203125,0.025
10.828125,0.035
10.8359375,0.085
10.84375,0.115
10.8515625,0.145
10.859375,0.165
10.8671875,0.175
10.875,0.185
10.8828125,0.185
10.890625,0.165
10.8984375,0.165
10.90625,0.145
10.9140625,0.135
10.921875,0.105
10.9296875,0.055
10.9375,-0.005
10.9453125,-0.045
10.953125,-0.075
10.9609375,-0.085
10.96875,-0.095
10.9765625,-0.105
10.984375,-0.105
10.9921875,-0.105
11,-0.105
11.0078125,-0.095
11.015625,-0.095
11.0234375,-0.085
11.03125,-0.085
11.0390625,-0.085
11.046875,-0.075
11.0546875,-0.085
11.0625,-0.085
11.0703125,-0.085
11.078125,-0.095
11.0859375,-0.085
11.09375,-0.095
11.1015625,-0.105
11.109375,-0.095
11.1171875,-0.095
11.125,-0.095
11.1328125,-0.095
11.140625,-0.105
11.1484375,-0.095
11.15625,-0.075
11.1640625,-0.045
11.171875,-0.025
11.1796875,-0.015
11.1875,-0.005
11.1953125,0.005
11.203125,0.015
11.2109375,0.015
11.21875,0.005
11.2265625,-0.025
11.234375,-0.075
11.2421875,-0.135
11.25,-0.145
11.2578125,-0.135
11.265625,-0.145
11.2734375,-0.145
11.28125,-0.135
11.2890625,-0.135
11.296875,-0.125
11.3046875,-0.125
11.3125,-0.065
11.3203125,0.245
11.328125,0.635
11.3359375,0.895
11.34375,0.235
11.3515625,-0.325
11.359375,-0.305
11.3671875,-0.165
11.375,-0.125
11.3828125,-0.125
11.390625,-0.135
11.3984375,-0.125
11.40625,-0.105
11.4140625,-0.095
11.421875,-0.085
11.4296875,-0.085
11.4375,-0.065
11.4453125,-0.045
11.453125,-0.045
11.4609375,-0.025
11.46875,-0.005
11.4765625,0.025
11.484375,0.055
11.4921875,0.075
11.5,0.105
11.5078125,0.135
11.515625,0.145
11.5234375,0.175
11.53125,0.195
11.5390625,0.195
11.546875,0.205
11.5546875,0.195
11.5625,0.185
11.5703125,0.165
11.578125,0.135
11.5859375,0.115
11.59375,0.065
11.6015625,0.025
11.609375,-0.015
11.6171875,-0.055
11.625,-0.075
11.6328125,-0.085
11.640625,-0.105
11.6484375,-0.085
11.65625,-0.085
11.6640625,-0.075
11.671875,-0.075
11.6796875,-0.065
11.6875,-0.085
11.6953125,-0.075
11.703125,-0.085
11.7109375,-0.075
11.71875,-0.075
11.7265625,-0.075
11.734375,-0.075
11.7421875,-0.085
11.75,-0.085
11.7578125,-0.095
11.765625,-0.105
11.7734375,-0.095
11.78125,-0.095
11.7890625,-0.095
11.796875,-0.095
11.8046875,-0.095
11.8125,-0.095
11.8203125,-0.075
11.828125,-0.065
11.8359375,-0.045
11.84375,-0.015
11.8515625,-0.005
11.859375,-0.005
11.8671875,0.025
11.875,0.005
11.8828125,0.005
11.890625,-0.035
11.8984375,-0.075
11.90625,-0.135
11.9140625,-0.145
11.921875,-0.135
11.9296875,-0.145
11.9375,-0.155
11.9453125,-0.145
11.953125,-0.145
11.9609375,-0.145
11.96875,-0.145
11.9765625,-0.095
11.984375,0.185
11.9921875,0.565
12,0.875
12.0078125,0.245
12.015625,-0.325
12.0234375,-0.325
12.03125,-0.175
12.0390625,-0.135
12.046875,-0.145
12.0546875,-0.145
12.0625,-0.135
12.0703125,-0.135
12.078125,-0.125
12.0859375,-0.105
12.09375,-0.095
12.1015625,-0.085
12.109375,-0.065
12.1171875,-0.055
12.125,-0.035
12.1328125,-0.025
12.140625,-0.015
12.1484375,0.025
12.15625,0.045
12.1640625,0.065
12.171875,0.105
12.1796875,0.135
12.1875,0.155
12.1953125,0.165
12.203125,0.165
12.2109375,0.175
12.21875,0.165
12.2265625,0.165
12.234375,0.155
12.2421875,0.135
12.25,0.105
12.2578125,0.065
12.265625,0.015
12.2734375,-0.025
12.28125,-0.055
12.2890625,-0.085
12.296875,-0.095
12.3046875,-0.105
12.3125,-0.105
12.3203125,-0.115
12.328125,-0.115
12.3359375,-0.105
12.34375,-0.105
12.3515625,-0.095
12.359375,-0.085
12.3671875,-0.095
12.375,-0.095
12.3828125,-0.095
12.390625,-0.115
12.3984375,-0.095
12.40625,-0.105
12.4140625,-0.115
12.421875,-0.105
12.4296875,-0.105
12.4375,-0.115
12.4453125,-0.115
12.453125,-0.125
12.4609375,-0.115
12.46875,-0.115
12.4765625,-0.105
12.484375,-0.075
12.4921875,-0.055
12.5,-0.045
12.5078125,-0.035
12.515625,-0.045
12.5234375,-0.015
12.53125,-0.005
12.5390625,-0.015
12.546875,-0.025
12.5546875,-0.065
12.5625,-0.125
12.5703125,-0.165
12.578125,-0.175
12.5859375,-0.165
12.59375,-0.165
12.6015625,-0.165
12.609375,-0.165
12.6171875,-0.155
12.625,-0.145
12.6328125,-0.145
12.640625,-0.025
12.6484375,0.325
12.65625,0.735
12.6640625,0.745
12.671875,-0.095
12.6796875,-0.385
12.6875,-0.255
12.6953125,-0.155
12.703125,-0.155
12.7109375,-0.165
12.71875,-0.145
12.7265625,-0.145
12.734375,-0.125
12.7421875,-0.125
12.75,-0.105
12.7578125,-0.105
12.765625,-0.085
12.7734375,-0.065
12.78125,-0.065
12.7890625,-0.035
12.796875,-0.015
12.8046875,-0.005
12.8125,0.025
12.8203125,0.055
12.828125,0.065
12.8359375,0.115
12.84375,0.145
12.8515625,0.155
12.859375,0.175
12.8671875,0.175
12.875,0.165
12.8828125,0.155
12.890625,0.145
12.8984375,0.135
12.90625,0.105
12.9140625,0.075
12.921875,0.035
12.9296875,-0.015
12.9375,-0.065
12.9453125,-0.075
12.953125,-0.115
12.9609375,-0.115
12.96875,-0.125
12.9765625,-0.115
12.984375,-0.105
12.9921875,-0.105
13,-0.105
13.0078125,-0.105
13.015625,-0.115
13.0234375,-0.105
13.03125,-0.095
13.0390625,-0.105
13.046875,-0.095
13.0546875,-0.105
13.0625,-0.095
13.0703125,-0.105
13.078125,-0.115
13.0859375,-0.105
13.09375,-0.115
13.1015625,-0.105
13.109375,-0.105
13.1171875,-0.105
13.125,-0.115
13.1328125,-0.115
13.140625,-0.125
13.1484375,-0.115
13.15625,-0.125
13.1640625,-0.095
13.171875,-0.065
13.1796875,-0.055
13.1875,-0.045
13.1953125,-0.025
13.203125,-0.045
13.2109375,0.005
13.21875,0.005
13.2265625,-0.005
13.234375,-0.015
13.2421875,-0.085
13.25,-0.145
13.2578125,-0.165
13.265625,-0.175
13.2734375,-0.175
13.28125,-0.155
13.2890625,-0.165
13.296875,-0.155
13.3046875,-0.155
13.3125,-0.145
13.3203125,-0.125
13.328125,0.085
13.3359375,0.435
13.34375,0.795
13.3515625,0.445
13.359375,-0.225
13.3671875,-0.345
13.375,-0.205
13.3828125,-0.145
13.390625,-0.155
13.3984375,-0.145
13.40625,-0.135
13.4140625,-0.115
13.421875,-0.115
13.4296875,-0.105
13.4375,-0.105
13.4453125,-0.095
13.453125,-0.085
13.4609375,-0.065
13.46875,-0.045
13.4765625,-0.025
13.484375,-0.005
13.4921875,0.015
13.5,0.025
13.5078125,0.065
13.515625,0.085
13.5234375,0.115
13.53125,0.145
13.5390625,0.175
13.546875,0.185
13.5546875,0.185
13.5625,0.165
13.5703125,0.165
13.578125,0.145
13.5859375,0.135
13.59375,0.125
13.6015625,0.095
13.609375,0.045
13.6171875,-0.005
13.625,-0.045
13.6328125,-0.065
13.640625,-0.105
13.6484375,-0.105
13.65625,-0.115
13.6640625,-0.105
13.671875,-0.105
13.6796875,-0.105
13.6875,-0.105
13.6953125,-0.095
13.703125,-0.105
13.7109375,-0.085
13.71875,-0.085
13.7265625,-0.085
13.734375,-0.075
13.7421875,-0.085
13.75,-0.075
13.7578125,-0.075
13.765625,-0.085
13.7734375,-0.085
13.78125,-0.085
13.7890625,-0.085
13.796875,-0.075
13.8046875,-0.095
13.8125,-0.085
13.8203125,-0.095
13.828125,-0.095
13.8359375,-0.075
13.84375,-0.055
13.8515625,-0.055
13.859375,-0.035
13.8671875,-0.025
13.875,-0.025
13.8828125,-0.005
13.890625,-0.025
13.8984375,-0.035
13.90625,-0.065
13.9140625,-0.105
13.921875,-0.165
13.9296875,-0.175
13.9375,-0.175
13.9453125,-0.175
13.953125,-0.195
13.9609375,-0.185
13.96875,-0.195
13.9765625,-0.185
13.984375,-0.185
13.9921875,-0.135
14,0.125
14.0078125,0.465
14.015625,0.685
14.0234375,0.075
14.03125,-0.405
14.0390625,-0.395
14.046875,-0.265
14.0546875,-0.215
14.0625,-0.215
14.0703125,-0.215
14.078125,-0.215
14.0859375,-0.185
14.09375,-0.175
14.1015625,-0.175
14.109375,-0.155
14.1171875,-0.145
14.125,-0.135
14.1328125,-0.115
14.140625,-0.115
14.1484375,-0.085
14.15625,-0.055
14.1640625,-0.045
14.171875,-0.005
14.1796875,0.025
14.1875,0.055
14.1953125,0.085
14.203125,0.115
14.2109375,0.145
14.21875,0.145
14.2265625,0.145
14.234375,0.155
14.2421875,0.135
14.25,0.125
14.2578125,0.095
14.265625,0.055
14.2734375,0.025
14.28125,-0.035
14.2890625,-0.085
14.296875,-0.095
14.3046875,-0.125
14.3125,-0.145
14.3203125,-0.165
14.328125,-0.165
14.3359375,-0.145
14.34375,-0.155
14.3515625,-0.145
14.359375,-0.135
14.3671875,-0.135
14.375,-0.145
14.3828125,-0.135
14.390625,-0.155
14.3984375,-0.125
14.40625,-0.135
14.4140625,-0.125
14.421875,-0.125
14.4296875,-0.135
14.4375,-0.135
14.4453125,-0.135
14.453125,-0.135
14.4609375,-0.125
14.46875,-0.095
14.4765625,-0.065
14.484375,-0.065
14.4921875,-0.065
14.5,-0.055
14.5078125,-0.025
14.515625,-0.055
14.5234375,-0.065
14.53125,-0.065
14.5390625,-0.135
14.546875,-0.175
14.5546875,-0.195
14.5625,-0.195
14.5703125,-0.195
14.578125,-0.215
14.5859375,-0.205
14.59375,-0.195
14.6015625,-0.175
14.609375,-0.205
14.6171875,-0.145
14.625,0.185
14.6328125,0.655
14.640625,0.735
14.6484375,-0.115
14.65625,-0.455
14.6640625,-0.335
14.671875,-0.215
14.6796875,-0.175
14.6875,-0.195
14.6953125,-0.185
14.703125,-0.185
14.7109375,-0.165
14.71875,-0.155
14.7265625,-0.135
14.734375,-0.125
14.7421875,-0.115
14.75,-0.105
14.7578125,-0.095
14.765625,-0.075
14.7734375,-0.055
14.78125,-0.025
14.7890625,0.005
14.796875,0.035
14.8046875,0.045
14.8125,0.085
14.8203125,0.115
14.828125,0.125
14.8359375,0.155
14.84375,0.165
14.8515625,0.155
14.859375,0.145
14.8671875,0.135
14.875,0.125
14.8828125,0.105
14.890625,0.055
14.8984375,0.025
14.90625,-0.025
14.9140625,-0.065
14.921875,-0.085
14.9296875,-0.105
14.9375,-0.125
14.9453125,-0.115
14.953125,-0.125
14.9609375,-0.115
14.96875,-0.115
14.9765625,-0.105
14.984375,-0.105
14.9921875,-0.105
15,-0.105
15.0078125,-0.105
15.015625,-0.105
15.0234375,-0.095
15.03125,-0.105
15.0390625,-0.095
15.046875,-0.095
15.0546875,-0.115
15.0625,-0.105
15.0703125,-0.095
15.078125,-0.065
15.0859375,-0.045
15.09375,-0.035
15.1015625,-0.025
15.109375,0.005
15.1171875,-0.005
15.125,-0.025
15.1328125,-0.045
15.140625,-0.095
15.1484375,-0.135
15.15625,-0.165
15.1640625,-0.165
15.171875,-0.155
15.1796875,-0.155
15.1875,-0.165
15.1953125,-0.155
15.203125,-0.155
15.2109375,-0.145
15.21875,-0.155
15.2265625,0.045
15.234375,0.435
15.2421875,0.815
15.25,0.375
15.2578125,-0.255
15.265625,-0.345
15.2734375,-0.235
15.28125,-0.165
15.2890625,-0.145
15.296875,-0.145
15.3046875,-0.135
15.3125,-0.135
15.3203125,-0.115
15.328125,-0.115
15.3359375,-0.105
15.34375,-0.095
15.3515625,-0.075
15.359375,-0.055
15.3671875,-0.055
15.375,-0.045
15.3828125,-0.015
15.390625,-0.005
15.3984375,0.035
15.40625,0.055
15.4140625,0.095
15.421875,0.125
15.4296875,0.145
15.4375,0.165
15.4453125,0.175
15.453125,0.165
15.4609375,0.175
15.46875,0.155
15.4765625,0.135
15.484375,0.115
15.4921875,0.085
15.5,0.045
15.5078125,-0.005
15.515625,-0.045
15.5234375,-0.075
15.53125,-0.085
15.5390625,-0.095
15.546875,-0.105
15.5546875,-0.125
15.5625,-0.115
15.5703125,-0.115
15.578125,-0.115
15.5859375,-0.105
15.59375,-0.095
15.6015625,-0.085
15.609375,-0.075
15.6171875,-0.085
15.625,-0.075
15.6328125,-0.075
15.640625,-0.095
15.6484375,-0.065
15.65625,-0.075
15.6640625,-0.075
15.671875,-0.075
15.6796875,-0.075
15.6875,-0.075
15.6953125,-0.065
15.703125,-0.085
15.7109375,-0.055
15.71875,-0.025
15.7265625,-0.015
15.734375,-0.005
15.7421875,0.005
15.75,0.035
15.7578125,0.025
15.765625,0.005
15.7734375,-0.015
15.78125,-0.055
15.7890625,-0.085
15.796875,-0.095
15.8046875,-0.105
15.8125,-0.095
15.8203125,-0.095
15.828125,-0.105
15.8359375,-0.085
15.84375,-0.095
15.8515625,-0.105
15.859375,-0.015
15.8671875,0.265
15.875,0.645
15.8828125,0.735
15.890625,-0.035
15.8984375,-0.325
15.90625,-0.245
15.9140625,-0.155
15.921875,-0.135
15.9296875,-0.135
15.9375,-0.135
15.9453125,-0.135
15.953125,-0.145
15.9609375,-0.115
15.96875,-0.105
15.9765625,-0.105
15.984375,-0.085
15.9921875,-0.075
16,-0.065
16.0078125,-0.035
16.015625,-0.025
16.0234375,-0.005
16.03125,0.035
16.0390625,0.065
16.046875,0.095
16.0546875,0.115
16.0625,0.155
16.0703125,0.175
16.078125,0.175
16.0859375,0.185
16.09375,0.185
16.1015625,0.185
16.109375,0.185
16.1171875,0.155
16.125,0.135
16.1328125,0.095
16.140625,0.035
16.1484375,-0.005
16.15625,-0.045
16.1640625,-0.075
16.171875,-0.085
16.1796875,-0.115
16.1875,-0.105
16.1953125,-0.105
16.203125,-0.115
16.2109375,-0.105
16.21875,-0.095
16.2265625,-0.095
16.234375,-0.095
16.2421875,-0.085
16.25,-0.085
16.2578125,-0.085
16.265625,-0.095
16.2734375,-0.075
16.28125,-0.075
16.2890625,-0.085
16.296875,-0.075
16.3046875,-0.085
16.3125,-0.085
16.3203125,-0.085
16.328125,-0.095
16.3359375,-0.095
16.34375,-0.095
16.3515625,-0.095
16.359375,-0.095
16.3671875,-0.095
16.375,-0.095
16.3828125,-0.065
16.390625,-0.045
16.3984375,-0.025
16.40625,-0.015
16.4140625,0.005
16.421875,0.015
16.4296875,0.045
16.4375,0.015
16.4453125,0.015
16.453125,-0.035
16.4609375,-0.085
16.46875,-0.135
16.4765625,-0.135
16.484375,-0.135
16.4921875,-0.135
16.5,-0.145
16.5078125,-0.145
16.515625,-0.145
16.5234375,-0.125
16.53125,-0.125
16.5390625,-0.075
16.546875,0.195
16.5546875,0.565
16.5625,0.935
16.5703125,0.515
16.578125,-0.215
16.5859375,-0.335
16.59375,-0.165
16.6015625,-0.125
16.609375,-0.105
16.6171875,-0.125
16.625,-0.115
16.6328125,-0.105
16.640625,-0.115
16.6484375,-0.095
16.65625,-0.085
16.6640625,-0.075
16.671875,-0.065
16.6796875,-0.045
16.6875,-0.035
16.6953125,-0.015
16.703125,-0.005
16.7109375,0.025
16.71875,0.055
16.7265625,0.095
16.734375,0.115
16.7421875,0.145
16.75,0.165
16.7578125,0.195
16.765625,0.205
16.7734375,0.205
16.78125,0.205
16.7890625,0.205
16.796875,0.195
16.8046875,0.165
16.8125,0.125
16.8203125,0.075
16.828125,0.035
16.8359375,-0.025
16.84375,-0.035
16.8515625,-0.075
16.859375,-0.085
16.8671875,-0.105
16.875,-0.105
16.8828125,-0.105
16.890625,-0.125
16.8984375,-0.115
16.90625,-0.105
16.9140625,-0.095
16.921875,-0.085
16.9296875,-0.095
16.9375,-0.085
16.9453125,-0.075
16.953125,-0.095
16.9609375,-0.095
16.96875,-0.085
16.9765625,-0.075
16.984375,-0.085
16.9921875,-0.095
17,-0.095
17.0078125,-0.095
17.015625,-0.105
17.0234375,-0.105
17.03125,-0.105
17.0390625,-0.105
17.046875,-0.095
17.0546875,-0.105
17.0625,-0.105
17.0703125,-0.105
17.078125,-0.085
17.0859375,-0.035
17.09375,-0.045
17.1015625,-0.045
17.109375,-0.015
17.1171875,0.015
17.125,0.035
17.1328125,0.015
17.140625,0.005
17.1484375,-0.015
17.15625,-0.095
17.1640625,-0.145
17.171875,-0.155
17.1796875,-0.155
17.1875,-0.165
17.1953125,-0.165
17.203125,-0.175
17.2109375,-0.165
17.21875,-0.155
17.2265625,-0.135
17.234375,-0.135
17.2421875,-0.045
17.25,0.245
17.2578125,0.615
17.265625,0.925
17.2734375,0.195
17.28125,-0.335
17.2890625,-0.285
17.296875,-0.145
17.3046875,-0.125
17.3125,-0.135
17.3203125,-0.135
17.328125,-0.125
17.3359375,-0.115
17.34375,-0.095
17.3515625,-0.085
17.359375,-0.075
17.3671875,-0.055
17.375,-0.055
17.3828125,-0.045
17.390625,-0.035
17.3984375,-0.005
17.40625,0.015
17.4140625,0.035
17.421875,0.075
17.4296875,0.095
17.4375,0.135
17.4453125,0.165
17.453125,0.175
17.4609375,0.205
17.46875,0.215
17.4765625,0.225
17.484375,0.215
17.4921875,0.205
17.5,0.195
17.5078125,0.165
17.515625,0.115
17.5234375,0.085
17.53125,0.045
17.5390625,-0.005
17.546875,-0.035
17.5546875,-0.075
17.5625,-0.085
17.5703125,-0.105
17.578125,-0.105
17.5859375,-0.105
17.59375,-0.105
17.6015625,-0.095
17.609375,-0.095
17.6171875,-0.095
17.625,-0.095
17.6328125,-0.075
17.640625,-0.085
17.6484375,-0.085
17.65625,-0.085
17.6640625,-0.075
17.671875,-0.065
17.6796875,-0.075
17.6875,-0.085
17.6953125,-0.075
17.703125,-0.085
17.7109375,-0.075
17.71875,-0.085
17.7265625,-0.085
17.734375,-0.095
17.7421875,-0.085
17.75,-0.095
17.7578125,-0.095
17.765625,-0.105
17.7734375,-0.105
17.78125,-0.105
17.7890625,-0.105
17.796875,-0.075
17.8046875,-0.045
17.8125,-0.045
17.8203125,-0.045
17.828125,-0.015
17.8359375,0.015
17.84375,0.035
17.8515625,0.005
17.859375,0.015
17.8671875,-0.035
17.875,-0.125
17.8828125,-0.155
17.890625,-0.165
17.8984375,-0.165
17.90625,-0.155
17.9140625,-0.165
17.921875,-0.165
17.9296875,-0.165
17.9375,-0.155
17.9453125,-0.145
17.953125,-0.135
17.9609375,0.045
17.96875,0.395
17.9765625,0.815
17.984375,0.655
17.9921875,-0.145
18,-0.365
18.0078125,-0.205
18.015625,-0.145
18.0234375,-0.145
18.03125,-0.155
18.0390625,-0.135
18.046875,-0.125
18.0546875,-0.125
18.0625,-0.115
18.0703125,-0.105
18.078125,-0.105
18.0859375,-0.085
18.09375,-0.065
18.1015625,-0.055
18.109375,-0.035
18.1171875,-0.015
18.125,0.005
18.1328125,0.035
18.140625,0.055
18.1484375,0.095
18.15625,0.125
18.1640625,0.155
18.171875,0.175
18.1796875,0.185
18.1875,0.195
18.1953125,0.205
18.203125,0.185
18.2109375,0.195
18.21875,0.175
18.2265625,0.145
18.234375,0.105
18.2421875,0.065
18.25,0.005
18.2578125,-0.035
18.265625,-0.075
18.2734375,-0.085
18.28125,-0.105
18.2890625,-0.115
18.296875,-0.115
18.3046875,-0.125
18.3125,-0.105
18.3203125,-0.105
18.328125,-0.115
18.3359375,-0.105
18.34375,-0.095
18.3515625,-0.095
18.359375,-0.095
18.3671875,-0.095
18.375,-0.095
18.3828125,-0.095
18.390625,-0.115
18.3984375,-0.115
18.40625,-0.115
18.4140625,-0.115
18.421875,-0.125
18.4296875,-0.125
18.4375,-0.135
18.4453125,-0.135
18.453125,-0.155
18.4609375,-0.155
18.46875,-0.135
18.4765625,-0.145
18.484375,-0.135
18.4921875,-0.145
18.5,-0.145
18.5078125,-0.145
18.515625,-0.135
18.5234375,-0.105
18.53125,-0.085
18.5390625,-0.075
18.546875,-0.055
18.5546875,-0.035
18.5625,0.005
18.5703125,0.005
18.578125,-0.005
18.5859375,-0.015
18.59375,-0.075
18.6015625,-0.135
18.609375,-0.165
18.6171875,-0.165
18.625,-0.165
18.6328125,-0.165
18.640625,-0.175
18.6484375,-0.175
18.65625,-0.165
18.6640625,-0.145
18.671875,-0.155
18.6796875,-0.125
18.6875,0.105
18.6953125,0.485
18.703125,0.815
18.7109375,0.315
18.71875,-0.265
18.7265625,-0.335
18.734375,-0.195
18.7421875,-0.155
18.75,-0.155
18.7578125,-0.155
18.765625,-0.155
18.7734375,-0.145
18.78125,-0.125
18.7890625,-0.105
18.796875,-0.095
18.8046875,-0.085
18.8125,-0.075
18.8203125,-0.055
18.828125,-0.045
18.8359375,-0.025
18.84375,-0.005
18.8515625,0.025
18.859375,0.055
18.8671875,0.075
18.875,0.105
18.8828125,0.135
18.890625,0.155
18.8984375,0.175
18.90625,0.175
18.9140625,0.185
18.921875,0.185
18.9296875,0.175
18.9375,0.155
18.9453125,0.135
18.953125,0.085
18.9609375,0.055
18.96875,0.005
18.9765625,-0.035
18.984375,-0.065
18.9921875,-0.095
19,-0.115
19.0078125,-0.125
19.015625,-0.135
19.0234375,-0.125
19.03125,-0.115
19.0390625,-0.115
19.046875,-0.105
19.0546875,-0.115
19.0625,-0.115
19.0703125,-0.115
19.078125,-0.115
19.0859375,-0.105
19.09375,-0.105
19.1015625,-0.115
19.109375,-0.105
19.1171875,-0.105
19.125,-0.115
19.1328125,-0.125
19.140625,-0.135
19.1484375,-0.125
19.15625,-0.125
19.1640625,-0.125
19.171875,-0.115
19.1796875,-0.115
19.1875,-0.135
19.1953125,-0.125
19.203125,-0.135
19.2109375,-0.125
19.21875,-0.105
19.2265625,-0.075
19.234375,-0.055
19.2421875,-0.075
19.25,-0.045
19.2578125,-0.025
19.265625,-0.005
19.2734375,0.015
19.28125,0.015
19.2890625,0.005
19.296875,-0.035
19.3046875,-0.125
19.3125,-0.175
19.3203125,-0.165
19.328125,-0.175
19.3359375,-0.175
19.34375,-0.175
19.3515625,-0.165
19.359375,-0.155
19.3671875,-0.155
19.375,-0.155
19.3828125,-0.115
19.390625,0.125
19.3984375,0.525
19.40625,0.855
19.4140625,0.275
19.421875,-0.285
19.4296875,-0.345
19.4375,-0.195
19.4453125,-0.145
19.453125,-0.155
19.4609375,-0.145
19.46875,-0.145
19.4765625,-0.125
19.484375,-0.115
19.4921875,-0.115
19.5,-0.095
19.5078125,-0.085
19.515625,-0.075
19.5234375,-0.055
19.53125,-0.045
19.5390625,-0.025
19.546875,0.005
19.5546875,0.035
19.5625,0.045
19.5703125,0.065
19.578125,0.105
19.5859375,0.125
19.59375,0.155
19.6015625,0.175
19.609375,0.175
19.6171875,0.185
19.625,0.175
19.6328125,0.165
19.640625,0.155
19.6484375,0.135
19.65625,0.105
19.6640625,0.065
19.671875,0.025
19.6796875,-0.035
19.6875,-0.075
19.6953125,-0.095
19.703125,-0.115
19.7109375,-0.115
19.71875,-0.135
19.7265625,-0.125
19.734375,-0.125
19.7421875,-0.115
19.75,-0.115
19.7578125,-0.115
19.765625,-0.125
19.7734375,-0.115
19.78125,-0.105
19.7890625,-0.115
19.796875,-0.105
19.8046875,-0.115
19.8125,-0.135
19.8203125,-0.125
19.828125,-0.135
19.8359375,-0.135
19.84375,-0.145
19.8515625,-0.135
19.859375,-0.135
19.8671875,-0.145
19.875,-0.145
19.8828125,-0.155
19.890625,-0.165
19.8984375,-0.135
19.90625,-0.105
19.9140625,-0.095
19.921875,-0.075
19.9296875,-0.065
19.9375,-0.085
19.9453125,-0.035
19.953125,-0.035
19.9609375,-0.035
19.96875,-0.065
19.9765625,-0.105
19.984375,-0.175
19.9921875,-0.195
20,-0.195
20.0078125,-0.195
20.015625,-0.195
20.0234375,-0.205
20.03125,-0.195
20.0390625,-0.185
20.046875,-0.165
20.0546875,-0.165
20.0625,-0.015
20.0703125,0.345
20.078125,0.725
20.0859375,0.535
20.09375,-0.185
20.1015625,-0.405
20.109375,-0.285
20.1171875,-0.195
20.125,-0.165
20.1328125,-0.175
20.140625,-0.185
20.1484375,-0.165
20.15625,-0.155
20.1640625,-0.145
20.171875,-0.145
20.1796875,-0.125
20.1875,-0.115
20.1953125,-0.105
20.203125,-0.095
20.2109375,-0.075
20.21875,-0.055
20.2265625,-0.035
20.234375,-0.005
20.2421875,0.025
20.25,0.065
20.2578125,0.085
20.265625,0.105
20.2734375,0.145
20.28125,0.155
20.2890625,0.165
20.296875,0.165
20.3046875,0.155
20.3125,0.155
20.3203125,0.135
20.328125,0.105
20.3359375,0.065
20.34375,0.025
20.3515625,-0.035
20.359375,-0.055
20.3671875,-0.095
20.375,-0.125
20.3828125,-0.135
20.390625,-0.155
20.3984375,-0.135
20.40625,-0.135
20.4140625,-0.125
20.421875,-0.115
20.4296875,-0.115
20.4375,-0.125
20.4453125,-0.105
20.453125,-0.115
20.4609375,-0.105
20.46875,-0.105
20.4765625,-0.095
20.484375,-0.105
20.4921875,-0.115
20.5,-0.115
20.5078125,-0.115
20.515625,-0.115
20.5234375,-0.105
20.53125,-0.085
20.5390625,-0.055
20.546875,-0.035
20.5546875,-0.055
20.5625,-0.035
20.5703125,-0.005
20.578125,-0.025
20.5859375,-0.035
20.59375,-0.045
20.6015625,-0.115
20.609375,-0.155
20.6171875,-0.165
20.625,-0.175
20.6328125,-0.175
20.640625,-0.195
20.6484375,-0.175
20.65625,-0.175
20.6640625,-0.155
20.671875,-0.185
20.6796875,-0.145
20.6875,0.175
20.6953125,0.635
20.703125,0.855
20.7109375,0.115
20.71875,-0.375
20.7265625,-0.345
20.734375,-0.205
20.7421875,-0.155
20.75,-0.145
20.7578125,-0.155
20.765625,-0.145
20.7734375,-0.125
20.78125,-0.125
20.7890625,-0.115
20.796875,-0.085
20.8046875,-0.085
20.8125,-0.065
20.8203125,-0.065
20.828125,-0.045
20.8359375,-0.015
20.84375,0.005
20.8515625,0.025
20.859375,0.055
20.8671875,0.085
20.875,0.105
20.8828125,0.145
20.890625,0.155
20.8984375,0.175
20.90625,0.185
20.9140625,0.195
20.921875,0.185
20.9296875,0.165
20.9375,0.145
20.9453125,0.135
20.953125,0.085
20.9609375,0.045
20.96875,0.015
20.9765625,-0.035
20.984375,-0.055
20.9921875,-0.075
21,-0.095
21.0078125,-0.095
21.015625,-0.105
21.0234375,-0.095
21.03125,-0.095
21.0390625,-0.085
21.046875,-0.085
21.0546875,-0.085
21.0625,-0.085
21.0703125,-0.085
21.078125,-0.085
21.0859375,-0.085
21.09375,-0.095
21.1015625,-0.105
21.109375,-0.085
21.1171875,-0.095
21.125,-0.085
21.1328125,-0.045
21.140625,-0.035
21.1484375,-0.025
21.15625,-0.025
21.1640625,0.005
21.171875,-0.005
21.1796875,-0.015
21.1875,-0.065
21.1953125,-0.105
21.203125,-0.175
21.2109375,-0.165
21.21875,-0.175
21.2265625,-0.175
21.234375,-0.175
21.2421875,-0.185
21.25,-0.175
21.2578125,-0.175
21.265625,-0.195
21.2734375,-0.145
21.28125,0.155
21.2890625,0.605
21.296875,0.865
21.3046875,0.025
21.3125,-0.395
21.3203125,-0.315
21.328125,-0.195
21.3359375,-0.165
21.34375,-0.175
21.3515625,-0.165
21.359375,-0.155
21.3671875,-0.145
21.375,-0.135
21.3828125,-0.135
21.390625,-0.135
21.3984375,-0.105
21.40625,-0.085
21.4140625,-0.075
21.421875,-0.075
21.4296875,-0.035
21.4375,-0.025
21.4453125,-0.005
21.453125,0.015
21.4609375,0.055
21.46875,0.085
21.4765625,0.115
21.484375,0.135
21.4921875,0.145
21.5,0.155
21.5078125,0.165
21.515625,0.145
21.5234375,0.135
21.53125,0.125
21.5390625,0.105
21.546875,0.055
21.5546875,0.015
21.5625,-0.015
21.5703125,-0.055
21.578125,-0.095
21.5859375,-0.105
21.59375,-0.105
21.6015625,-0.115
21.609375,-0.115
21.6171875,-0.115
21.625,-0.115
21.6328125,-0.105
21.640625,-0.115
21.6484375,-0.105
21.65625,-0.095
21.6640625,-0.095
21.671875,-0.095
21.6796875,-0.095
21.6875,-0.095
21.6953125,-0.105
21.703125,-0.115
21.7109375,-0.115
21.71875,-0.095
21.7265625,-0.095
21.734375,-0.065
21.7421875,-0.055
21.75,-0.045
21.7578125,-0.045
21.765625,-0.025
21.7734375,-0.005
21.78125,-0.025
21.7890625,-0.045
21.796875,-0.075
21.8046875,-0.135
21.8125,-0.175
21.8203125,-0.175
21.828125,-0.185
21.8359375,-0.185
21.84375,-0.195
21.8515625,-0.175
21.859375,-0.165
21.8671875,-0.175
21.875,-0.195
21.8828125,-0.055
21.890625,0.295
21.8984375,0.755
21.90625,0.645
21.9140625,-0.165
21.921875,-0.415
21.9296875,-0.285
21.9375,-0.195
21.9453125,-0.175
21.953125,-0.195
21.9609375,-0.185
21.96875,-0.165
21.9765625,-0.155
21.984375,-0.145
21.9921875,-0.145
22,-0.135
22.0078125,-0.125
22.015625,-0.115
22.0234375,-0.095
22.03125,-0.075
22.0390625,-0.055
22.046875,-0.025
22.0546875,0.005
22.0625,0.045
22.0703125,0.065
22.078125,0.095
22.0859375,0.135
22.09375,0.145
22.1015625,0.145
22.109375,0.155
22.1171875,0.155
22.125,0.145
22.1328125,0.125
22.140625,0.095
22.1484375,0.065
22.15625,0.015
22.1640625,-0.015
22.171875,-0.055
22.1796875,-0.085
22.1875,-0.105
22.1953125,-0.105
22.203125,-0.125
22.2109375,-0.115
22.21875,-0.115
22.2265625,-0.105
22.234375,-0.105
22.2421875,-0.095
22.25,-0.085
22.2578125,-0.085
22.265625,-0.085
22.2734375,-0.075
22.28125,-0.075
22.2890625,-0.075
22.296875,-0.065
22.3046875,-0.085
22.3125,-0.075
22.3203125,-0.065
22.328125,-0.055
22.3359375,-0.025
22.34375,-0.015
22.3515625,-0.025
22.359375,0.005
22.3671875,0.015
22.375,-0.005
22.3828125,-0.025
22.390625,-0.045
22.3984375,-0.085
22.40625,-0.145
22.4140625,-0.145
22.421875,-0.155
22.4296875,-0.155
22.4375,-0.165
22.4453125,-0.155
22.453125,-0.165
22.4609375,-0.165
22.46875,-0.155
22.4765625,-0.145
22.484375,0.075
22.4921875,0.475
22.5,0.855
22.5078125,0.345
22.515625,-0.295
22.5234375,-0.355
22.53125,-0.215
22.5390625,-0.155
22.546875,-0.145
22.5546875,-0.155
22.5625,-0.145
22.5703125,-0.135
22.578125,-0.135
22.5859375,-0.115
22.59375,-0.105
22.6015625,-0.085
22.609375,-0.065
22.6171875,-0.045
22.625,-0.035
22.6328125,-0.015
22.640625,-0.015
22.6484375,0.015
22.65625,0.045
22.6640625,0.075
22.671875,0.115
22.6796875,0.135
22.6875,0.155
22.6953125,0.175
22.703125,0.165
22.7109375,0.175
22.71875,0.165
22.7265625,0.165
22.734375,0.145
22.7421875,0.115
22.75,0.055
22.7578125,0.025
22.765625,-0.025
22.7734375,-0.065
22.78125,-0.065
22.7890625,-0.105
22.796875,-0.105
22.8046875,-0.125
22.8125,-0.105
22.8203125,-0.115
22.828125,-0.115
22.8359375,-0.095
22.84375,-0.105
22.8515625,-0.105
22.859375,-0.095
22.8671875,-0.095
22.875,-0.085
22.8828125,-0.085
22.890625,-0.095
22.8984375,-0.085
22.90625,-0.095
22.9140625,-0.095
22.921875,-0.085
22.9296875,-0.095
22.9375,-0.055
22.9453125,-0.035
22.953125,-0.035
22.9609375,-0.015
22.96875,-0.015
22.9765625,0.005
22.984375,0.005
22.9921875,-0.015
23,-0.035
23.0078125,-0.065
23.015625,-0.115
23.0234375,-0.135
23.03125,-0.165
23.0390625,-0.155
23.046875,-0.185
23.0546875,-0.155
23.0625,-0.125
23.0703125,-0.135
23.078125,-0.115
23.0859375,-0.135
23.09375,-0.015
23.1015625,0.355
23.109375,0.785
23.1171875,0.725
23.125,-0.075
23.1328125,-0.345
23.140625,-0.245
23.1484375,-0.135
23.15625,-0.115
23.1640625,-0.105
23.171875,-0.125
23.1796875,-0.095
23.1875,-0.085
23.1953125,-0.085
23.203125,-0.055
23.2109375,-0.045
23.21875,-0.035
23.2265625,-0.015
23.234375,0.005
23.2421875,0.005
23.25,0.015
23.2578125,0.045
23.265625,0.045
23.2734375,0.085
23.28125,0.125
23.2890625,0.155
23.296875,0.175
23.3046875,0.185
23.3125,0.215
23.3203125,0.215
23.328125,0.195
23.3359375,0.215
23.34375,0.195
23.3515625,0.175
23.359375,0.155
23.3671875,0.105
23.375,0.055
23.3828125,0.005
23.390625,-0.025
23.3984375,-0.035
23.40625,-0.055
23.4140625,-0.065
23.421875,-0.065
23.4296875,-0.055
23.4375,-0.055
23.4453125,-0.055
23.453125,-0.055
23.4609375,-0.045
23.46875,-0.035
23.4765625,-0.025
23.484375,-0.025
23.4921875,-0.005
23.5,-0.025
23.5078125,-0.025
23.515625,-0.025
23.5234375,-0.015
23.53125,-0.015
23.5390625,-0.025
23.546875,-0.015
23.5546875,-0.015
23.5625,-0.025
23.5703125,-0.015
23.578125,0.015
23.5859375,0.035
23.59375,0.055
23.6015625,0.045
23.609375,0.045
23.6171875,0.075
23.625,0.075
23.6328125,0.065
23.640625,0.045
23.6484375,-0.005
23.65625,-0.055
23.6640625,-0.075
23.671875,-0.075
23.6796875,-0.055
23.6875,-0.065
23.6953125,-0.045
23.703125,-0.085
23.7109375,-0.045
23.71875,-0.075
23.7265625,-0.005
23.734375,0.285
23.7421875,0.635
23.75,0.875
23.7578125,0.255
23.765625,-0.265
23.7734375,-0.225
23.78125,-0.105
23.7890625,-0.035
23.796875,-0.025
23.8046875,-0.025
23.8125,-0.025
23.8203125,-0.015
23.828125,-0.005
23.8359375,-0.005
23.84375,0.025
23.8515625,0.035
23.859375,0.035
23.8671875,0.065
23.875,0.085
23.8828125,0.105
23.890625,0.105
23.8984375,0.135
23.90625,0.155
23.9140625,0.185
23.921875,0.225
23.9296875,0.265
23.9375,0.295
23.9453125,0.315
23.953125,0.315
23.9609375,0.325
23.96875,0.315
23.9765625,0.325
23.984375,0.305
23.9921875,0.265
24,0.215
24.0078125,0.165
24.015625,0.115
24.0234375,0.095
24.03125,0.065
24.0390625,0.025
24.046875,0.025
24.0546875,0.005
24.0625,-0.005
24.0703125,-0.005
24.078125,0.005
24.0859375,0.005
24.09375,-0.005
24.1015625,0.015
24.109375,0.035
24.1171875,0.025
24.125,0.025
24.1328125,0.035
24.140625,0.045
24.1484375,0.045
24.15625,0.045
24.1640625,0.035
24.171875,0.035
24.1796875,0.035
24.1875,0.035
24.1953125,0.045
24.203125,0.045
24.2109375,0.065
24.21875,0.105
24.2265625,0.115
24.234375,0.095
24.2421875,0.125
24.25,0.135
24.2578125,0.115
24.265625,0.075
24.2734375,0.065
24.28125,-0.015
24.2890625,-0.035
24.296875,-0.045
24.3046875,-0.045
24.3125,-0.045
24.3203125,-0.035
24.328125,-0.055
24.3359375,-0.045
24.34375,-0.035
24.3515625,0.005
24.359375,0.275
24.3671875,0.715
24.375,1.115
24.3828125,0.425
24.390625,-0.205
24.3984375,-0.265
24.40625,-0.085
24.4140625,-0.045
24.421875,-0.055
24.4296875,-0.055
24.4375,-0.055
24.4453125,-0.045
24.453125,-0.055
24.4609375,-0.025
24.46875,-0.025
24.4765625,-0.015
24.484375,0.005
24.4921875,0.005
24.5,0.035
24.5078125,0.035
24.515625,0.055
24.5234375,0.075
24.53125,0.105
24.5390625,0.135
24.546875,0.155
24.5546875,0.195
24.5625,0.215
24.5703125,0.235
24.578125,0.235
24.5859375,0.235
24.59375,0.235
24.6015625,0.215
24.609375,0.205
24.6171875,0.165
24.625,0.125
24.6328125,0.065
24.640625,0.015
24.6484375,-0.015
24.65625,-0.035
24.6640625,-0.055
24.671875,-0.075
24.6796875,-0.085
24.6875,-0.095
24.6953125,-0.085
24.703125,-0.095
24.7109375,-0.085
24.71875,-0.085
24.7265625,-0.085
24.734375,-0.055
24.7421875,-0.055
24.75,-0.055
24.7578125,-0.055
24.765625,-0.045
24.7734375,-0.045
24.78125,-0.045
24.7890625,-0.055
24.796875,-0.045
24.8046875,-0.065
24.8125,-0.045
24.8203125,-0.025
24.828125,-0.005
24.8359375,0.005
24.84375,0.025
24.8515625,0.025
24.859375,0.055
24.8671875,0.035
24.875,0.005
24.8828125,0.015
24.890625,-0.055
24.8984375,-0.105
24.90625,-0.145
24.9140625,-0.135
24.921875,-0.135
24.9296875,-0.145
24.9375,-0.135
24.9453125,-0.125
24.953125,-0.115
24.9609375,-0.135
24.96875,-0.015
24.9765625,0.345
24.984375,0.845
24.9921875,0.945
25,-0.015
25.0078125,-0.325
25.015625,-0.225
25.0234375,-0.135
25.03125,-0.125
25.0390625,-0.135
25.046875,-0.145
25.0546875,-0.125
25.0625,-0.105
25.0703125,-0.105
25.078125,-0.095
25.0859375,-0.095
25.09375,-0.095
25.1015625,-0.065
25.109375,-0.055
25.1171875,-0.035
25.125,-0.005
25.1328125,0.005
25.140625,0.025
25.1484375,0.065
25.15625,0.085
25.1640625,0.125
25.171875,0.155
25.1796875,0.195
25.1875,0.195
25.1953125,0.205
25.203125,0.185
25.2109375,0.185
25.21875,0.175
25.2265625,0.145
25.234375,0.115
25.2421875,0.065
25.25,0.015
25.2578125,-0.035
25.265625,-0.085
25.2734375,-0.095
25.28125,-0.125
25.2890625,-0.125
25.296875,-0.125
25.3046875,-0.115
25.3125,-0.125
25.3203125,-0.125
25.328125,-0.135
25.3359375,-0.125
25.34375,-0.105
25.3515625,-0.105
25.359375,-0.095
25.3671875,-0.085
25.375,-0.105
25.3828125,-0.095
25.390625,-0.095
25.3984375,-0.105
25.40625,-0.135
25.4140625,-0.105
25.421875,-0.125
25.4296875,-0.135
25.4375,-0.095
25.4453125,-0.165
25.453125,-0.155
25.4609375,-0.105
25.46875,-0.145
25.4765625,-0.165
25.484375,-0.065
25.4921875,-0.055
25.5,-0.075
25.5078125,0.005
25.515625,-0.025
25.5234375,-0.025
25.53125,-0.005
25.5390625,-0.065
25.546875,-0.055
25.5546875,-0.125
25.5625,-0.205
25.5703125,-0.235
25.578125,-0.225
25.5859375,-0.235
25.59375,-0.225
25.6015625,-0.235
25.609375,-0.235
25.6171875,-0.245
25.625,-0.235
25.6328125,-0.235
25.640625,-0.015
25.6484375,0.365
25.65625,0.715
25.6640625,0.125
25.671875,-0.415
25.6796875,-0.475
25.6875,-0.345
25.6953125,-0.265
25.703125,-0.305
25.7109375,-0.245
25.71875,-0.285
25.7265625,-0.245
25.734375,-0.215
25.7421875,-0.235
25.75,-0.265
25.7578125,-0.235
25.765625,-0.205
25.7734375,-0.195
25.78125,-0.205
25.7890625,-0.145
25.796875,-0.135
25.8046875,-0.115
25.8125,-0.105
25.8203125,-0.075
25.828125,-0.055
25.8359375,-0.035
25.84375,0.005
25.8515625,0.025
25.859375,0.025
25.8671875,0.025
25.875,-0.005
25.8828125,0.035
25.890625,0.025
25.8984375,0.035
25.90625,0.035
25.9140625,-0.025
25.921875,-0.085
25.9296875,-0.105
25.9375,-0.155
25.9453125,-0.225
25.953125,-0.225
25.9609375,-0.235
25.96875,-0.245
25.9765625,-0.175
25.984375,-0.175
25.9921875,-0.205
26,-0.215
26.0078125,-0.215
26.015625,-0.245
26.0234375,-0.245
26.03125,-0.245
26.0390625,-0.245
26.046875,-0.225
26.0546875,-0.225
26.0625,-0.235
26.0703125,-0.245
26.078125,-0.245
26.0859375,-0.275
26.09375,-0.255
26.1015625,-0.245
26.109375,-0.195
26.1171875,-0.185
26.125,-0.165
26.1328125,-0.175
26.140625,-0.125
26.1484375,-0.125
26.15625,-0.155
26.1640625,-0.185
26.171875,-0.225
26.1796875,-0.255
26.1875,-0.285
26.1953125,-0.295
26.203125,-0.295
26.2109375,-0.285
26.21875,-0.285
26.2265625,-0.285
26.234375,-0.265
26.2421875,-0.275
26.25,-0.245
26.2578125,-0.005
26.265625,0.325
26.2734375,0.645
26.28125,0.225
26.2890625,-0.405
26.296875,-0.475
26.3046875,-0.325
26.3125,-0.245
26.3203125,-0.245
26.328125,-0.255
26.3359375,-0.245
26.34375,-0.215
26.3515625,-0.215
26.359375,-0.205
26.3671875,-0.205
26.375,-0.165
26.3828125,-0.165
26.390625,-0.175
26.3984375,-0.135
26.40625,-0.105
26.4140625,-0.095
26.421875,-0.075
26.4296875,-0.045
26.4375,-0.025
26.4453125,0.005
26.453125,0.005
26.4609375,0.055
26.46875,0.065
26.4765625,0.075
26.484375,0.095
26.4921875,0.055
26.5,0.065
26.5078125,0.055
26.515625,0.025
26.5234375,-0.005
26.53125,-0.045
26.5390625,-0.065
26.546875,-0.095
26.5546875,-0.135
26.5625,-0.145
26.5703125,-0.175
26.578125,-0.195
26.5859375,-0.185
26.59375,-0.165
26.6015625,-0.185
26.609375,-0.175
26.6171875,-0.165
26.625,-0.155
26.6328125,-0.145
26.640625,-0.185
26.6484375,-0.175
26.65625,-0.155
26.6640625,-0.165
26.671875,-0.165
26.6796875,-0.165
26.6875,-0.165
26.6953125,-0.175
26.703125,-0.185
26.7109375,-0.125
26.71875,-0.115
26.7265625,-0.095
26.734375,-0.095
26.7421875,-0.065
26.75,-0.075
26.7578125,-0.085
26.765625,-0.105
26.7734375,-0.125
26.78125,-0.165
26.7890625,-0.215
26.796875,-0.215
26.8046875,-0.235
26.8125,-0.235
26.8203125,-0.215
26.828125,-0.215
26.8359375,-0.215
26.84375,-0.205
26.8515625,-0.215
26.859375,-0.135
26.8671875,0.215
26.875,0.595
26.8828125,0.535
26.890625,-0.195
26.8984375,-0.435
26.90625,-0.305
26.9140625,-0.205
26.921875,-0.195
26.9296875,-0.195
26.9375,-0.185
26.9453125,-0.185
26.953125,-0.185
26.9609375,-0.155
26.96875,-0.155
26.9765625,-0.125
26.984375,-0.105
26.9921875,-0.105
27,-0.105
27.0078125,-0.085
27.015625,-0.065
27.0234375,-0.025
27.03125,-0.015
27.0390625,0.015
27.046875,0.035
27.0546875,0.065
27.0625,0.075
27.0703125,0.115
27.078125,0.125
27.0859375,0.135
27.09375,0.145
27.1015625,0.135
27.109375,0.125
27.1171875,0.095
27.125,0.075
27.1328125,0.045
27.140625,-0.005
27.1484375,-0.035
27.15625,-0.055
27.1640625,-0.095
27.171875,-0.105
27.1796875,-0.105
27.1875,-0.115
27.1953125,-0.115
27.203125,-0.125
27.2109375,-0.105
27.21875,-0.105
27.2265625,-0.105
27.234375,-0.115
27.2421875,-0.105
27.25,-0.095
27.2578125,-0.095
27.265625,-0.105
27.2734375,-0.095
27.28125,-0.095
27.2890625,-0.115
27.296875,-0.075
27.3046875,-0.065
27.3125,-0.045
27.3203125,-0.015
27.328125,-0.025
27.3359375,0.005
27.34375,0.015
27.3515625,-0.015
27.359375,-0.015
27.3671875,-0.035
27.375,-0.085
27.3828125,-0.135
27.390625,-0.155
27.3984375,-0.135
27.40625,-0.135
27.4140625,-0.135
27.421875,-0.115
27.4296875,-0.105
27.4375,-0.105
27.4453125,-0.135
27.453125,-0.105
27.4609375,0.195
27.46875,0.615
27.4765625,0.845
27.484375,0.265
27.4921875,-0.295
27.5,-0.295
27.5078125,-0.185
27.515625,-0.115
27.5234375,-0.105
27.53125,-0.095
27.5390625,-0.075
27.546875,-0.065
27.5546875,-0.065
27.5625,-0.045
27.5703125,-0.045
27.578125,-0.035
27.5859375,-0.015
27.59375,0.005
27.6015625,0.005
27.609375,0.035
27.6171875,0.055
27.625,0.065
27.6328125,0.095
27.640625,0.105
27.6484375,0.145
27.65625,0.165
27.6640625,0.195
27.671875,0.215
27.6796875,0.215
27.6875,0.215
27.6953125,0.205
27.703125,0.175
27.7109375,0.165
27.71875,0.135
27.7265625,0.115
27.734375,0.075
27.7421875,0.025
27.75,-0.015
27.7578125,-0.045
27.765625,-0.065
27.7734375,-0.085
27.78125,-0.065
27.7890625,-0.065
27.796875,-0.065
27.8046875,-0.065
27.8125,-0.065
27.8203125,-0.055
27.828125,-0.065
27.8359375,-0.045
27.84375,-0.055
27.8515625,-0.055
27.859375,-0.045
27.8671875,-0.065
27.875,-0.055
27.8828125,-0.055
27.890625,-0.045
27.8984375,-0.005
27.90625,0.015
27.9140625,-0.005
27.921875,0.005
27.9296875,0.035
27.9375,0.015
27.9453125,0.005
27.953125,-0.025
27.9609375,-0.065
27.96875,-0.125
27.9765625,-0.145
27.984375,-0.135
27.9921875,-0.115
28,-0.145
28.0078125,-0.145
28.015625,-0.145
28.0234375,-0.135
28.03125,-0.125
28.0390625,-0.065
28.046875,0.245
28.0546875,0.665
28.0625,0.915
28.0703125,0.175
28.078125,-0.355
28.0859375,-0.335
28.09375,-0.175
28.1015625,-0.115
28.109375,-0.115
28.1171875,-0.115
28.125,-0.115
28.1328125,-0.105
28.140625,-0.095
28.1484375,-0.095
28.15625,-0.075
28.1640625,-0.045
28.171875,-0.045
28.1796875,-0.045
28.1875,-0.025
28.1953125,0.005
28.203125,-0.005
28.2109375,0.015
28.21875,0.075
28.2265625,0.105
28.234375,0.125
28.2421875,0.135
28.25,0.175
28.2578125,0.185
28.265625,0.185
28.2734375,0.175
28.28125,0.175
28.2890625,0.165
28.296875,0.155
28.3046875,0.145
28.3125,0.105
28.3203125,0.065
28.328125,0.025
28.3359375,-0.005
28.34375,-0.055
28.3515625,-0.085
28.359375,-0.095
28.3671875,-0.085
28.375,-0.095
28.3828125,-0.115
28.390625,-0.125
28.3984375,-0.075
28.40625,-0.075
28.4140625,-0.075
28.421875,-0.065
28.4296875,-0.075
28.4375,-0.065
28.4453125,-0.055
28.453125,-0.075
28.4609375,-0.065
28.46875,-0.065
28.4765625,-0.075
28.484375,-0.035
28.4921875,-0.025
28.5,-0.005
28.5078125,0.015
28.515625,0.025
28.5234375,0.045
28.53125,0.045
28.5390625,-0.025
28.546875,-0.035
28.5546875,-0.065
28.5625,-0.095
28.5703125,-0.125
28.578125,-0.145
28.5859375,-0.135
28.59375,-0.135
28.6015625,-0.135
28.609375,-0.125
28.6171875,-0.125
28.625,-0.125
28.6328125,-0.035
28.640625,0.235
28.6484375,0.645
28.65625,0.965
28.6640625,0.125
28.671875,-0.385
28.6796875,-0.295
28.6875,-0.135
28.6953125,-0.145
28.703125,-0.135
28.7109375,-0.125
28.71875,-0.115
28.7265625,-0.115
28.734375,-0.085
28.7421875,-0.085
28.75,-0.075
28.7578125,-0.025
28.765625,-0.065
28.7734375,-0.065
28.78125,-0.005
28.7890625,0.045
28.796875,0.005
28.8046875,0.005
28.8125,0.055
28.8203125,0.085
28.828125,0.115
28.8359375,0.135
28.84375,0.155
28.8515625,0.185
28.859375,0.175
28.8671875,0.175
28.875,0.165
28.8828125,0.145
28.890625,0.125
28.8984375,0.115
28.90625,0.055
28.9140625,0.025
28.921875,-0.035
28.9296875,-0.055
28.9375,-0.085
28.9453125,-0.095
28.953125,-0.095
28.9609375,-0.105
28.96875,-0.105
28.9765625,-0.045
28.984375,-0.175
28.9921875,-0.135
29,-0.125
29.0078125,-0.105
29.015625,-0.105
29.0234375,-0.095
29.03125,-0.095
29.0390625,-0.095
29.046875,-0.085
29.0546875,-0.095
29.0625,-0.065
29.0703125,-0.095
29.078125,-0.135
29.0859375,-0.105
29.09375,-0.105
29.1015625,-0.035
29.109375,-0.055
29.1171875,-0.045
29.125,0.035
29.1328125,-0.065
29.140625,-0.035
29.1484375,0.055
29.15625,-0.075
29.1640625,-0.065
29.171875,-0.105
29.1796875,-0.155
29.1875,-0.165
29.1953125,-0.175
29.203125,-0.175
29.2109375,-0.175
29.21875,-0.155
29.2265625,-0.165
29.234375,-0.115
29.2421875,-0.215
29.25,-0.075
29.2578125,0.215
29.265625,0.565
29.2734375,0.795
29.28125,-0.005
29.2890625,-0.435
29.296875,-0.325
29.3046875,-0.155
29.3125,-0.125
29.3203125,-0.135
29.328125,-0.155
29.3359375,-0.205
29.34375,-0.075
29.3515625,-0.155
29.359375,-0.145
29.3671875,-0.115
29.375,-0.095
29.3828125,-0.045
29.390625,0.035
29.3984375,-0.075
29.40625,-0.005
29.4140625,0.085
29.421875,-0.105
29.4296875,-0.025
29.4375,0.045
29.4453125,0.095
29.453125,0.105
29.4609375,0.135
29.46875,0.185
29.4765625,0.135
29.484375,0.135
29.4921875,0.135
29.5,0.145
29.5078125,0.115
29.515625,0.195
29.5234375,0.245
29.53125,-0.115
29.5390625,-0.135
29.546875,-0.015
29.5546875,0.005
29.5625,-0.105
29.5703125,-0.035
29.578125,-0.215
29.5859375,-0.255
29.59375,-0.105
29.6015625,-0.175
29.609375,-0.125
29.6171875,-0.115
29.625,-0.115
29.6328125,-0.115
29.640625,-0.125
29.6484375,-0.115
29.65625,-0.105
29.6640625,-0.105
29.671875,-0.125
29.6796875,-0.125
29.6875,-0.115
29.6953125,-0.125
29.703125,-0.155
29.7109375,-0.135
29.71875,-0.135
29.7265625,-0.145
29.734375,-0.145
29.7421875,-0.145
29.75,-0.125
29.7578125,-0.075
29.765625,-0.105
29.7734375,-0.085
29.78125,-0.075
29.7890625,-0.055
29.796875,-0.035
29.8046875,-0.055
29.8125,-0.045
29.8203125,-0.065
29.828125,-0.145
29.8359375,-0.195
29.84375,-0.185
29.8515625,-0.195
29.859375,-0.185
29.8671875,-0.185
29.875,-0.205
29.8828125,-0.195
29.890625,-0.195
29.8984375,-0.185
29.90625,-0.085
29.9140625,0.215
29.921875,0.605
29.9296875,0.725
29.9375,-0.055
29.9453125,-0.445
29.953125,-0.355
29.9609375,-0.205
29.96875,-0.165
29.9765625,-0.165
29.984375,-0.175
29.9921875,-0.165
30,-0.155
30.0078125,-0.145
30.015625,-0.155
30.0234375,-0.135
30.03125,-0.115
30.0390625,-0.095
30.046875,-0.085
30.0546875,-0.105
30.0625,-0.065
30.0703125,-0.045
30.078125,-0.035
30.0859375,-0.025
30.09375,0.015
30.1015625,0.065
30.109375,0.055
30.1171875,0.085
30.125,0.105
30.1328125,0.115
30.140625,0.095
30.1484375,0.115
30.15625,0.105
30.1640625,0.095
30.171875,0.075
30.1796875,0.045
30.1875,0.005
30.1953125,-0.025
30.203125,-0.105
30.2109375,-0.135
30.21875,-0.145
30.2265625,-0.165
30.234375,-0.165
30.2421875,-0.155
30.25,-0.155
30.2578125,-0.145
30.265625,-0.155
30.2734375,-0.135
30.28125,-0.135
30.2890625,-0.135
30.296875,-0.125
30.3046875,-0.135
30.3125,-0.135
30.3203125,-0.135
30.328125,-0.145
30.3359375,-0.135
30.34375,-0.145
30.3515625,-0.145
30.359375,-0.135
30.3671875,-0.135
30.375,-0.125
30.3828125,-0.095
30.390625,-0.095
30.3984375,-0.065
30.40625,-0.065
30.4140625,-0.065
30.421875,-0.045
30.4296875,-0.025
30.4375,-0.065
30.4453125,-0.065
30.453125,-0.115
30.4609375,-0.155
30.46875,-0.185
30.4765625,-0.185
30.484375,-0.175
30.4921875,-0.185
30.5,-0.185
30.5078125,-0.175
30.515625,-0.185
30.5234375,-0.175
30.53125,-0.175
30.5390625,0.025
30.546875,0.405
30.5546875,0.785
30.5625,0.495
30.5703125,-0.245
30.578125,-0.405
30.5859375,-0.265
30.59375,-0.195
30.6015625,-0.175
30.609375,-0.175
30.6171875,-0.175
30.625,-0.165
30.6328125,-0.145
30.640625,-0.155
30.6484375,-0.125
30.65625,-0.115
30.6640625,-0.115
30.671875,-0.095
30.6796875,-0.085
30.6875,-0.075
30.6953125,-0.055
30.703125,-0.045
30.7109375,-0.005
30.71875,0.015
30.7265625,0.045
30.734375,0.085
30.7421875,0.095
30.75,0.095
30.7578125,0.105
30.765625,0.095
30.7734375,0.115
30.78125,0.105
30.7890625,0.085
30.796875,0.075
30.8046875,0.035
30.8125,-0.005
30.8203125,-0.035
30.828125,-0.085
30.8359375,-0.105
30.84375,-0.125
30.8515625,-0.145
30.859375,-0.135
30.8671875,-0.145
30.875,-0.135
30.8828125,-0.135
30.890625,-0.135
30.8984375,-0.115
30.90625,-0.115
30.9140625,-0.115
30.921875,-0.115
30.9296875,-0.105
30.9375,-0.125
30.9453125,-0.115
30.953125,-0.135
30.9609375,-0.125
30.96875,-0.135
30.9765625,-0.125
30.984375,-0.115
30.9921875,-0.095
31,-0.095
31.0078125,-0.065
31.015625,-0.065
31.0234375,-0.055
31.03125,-0.035
31.0390625,-0.045
31.046875,-0.055
31.0546875,-0.085
31.0625,-0.125
31.0703125,-0.195
31.078125,-0.205
31.0859375,-0.185
31.09375,-0.195
31.1015625,-0.195
31.109375,-0.185
31.1171875,-0.165
31.125,-0.165
31.1328125,-0.215
31.140625,-0.135
31.1484375,0.245
31.15625,0.705
31.1640625,0.725
31.171875,-0.095
31.1796875,-0.425
31.1875,-0.345
31.1953125,-0.215
31.203125,-0.195
31.2109375,-0.185
31.21875,-0.185
31.2265625,-0.165
31.234375,-0.165
31.2421875,-0.155
31.25,-0.145
31.2578125,-0.125
31.265625,-0.135
31.2734375,-0.115
31.28125,-0.085
31.2890625,-0.075
31.296875,-0.045
31.3046875,-0.045
31.3125,-0.015
31.3203125,0.005
31.328125,0.015
31.3359375,0.055
31.34375,0.095
31.3515625,0.105
31.359375,0.115
31.3671875,0.115
31.375,0.115
31.3828125,0.115
31.390625,0.095
31.3984375,0.075
31.40625,0.065
31.4140625,0.045
31.421875,-0.005
31.4296875,-0.035
31.4375,-0.085
31.4453125,-0.095
31.453125,-0.125
31.4609375,-0.135
31.46875,-0.125
31.4765625,-0.125
31.484375,-0.125
31.4921875,-0.125
31.5,-0.115
31.5078125,-0.085
31.515625,-0.095
31.5234375,-0.095
31.53125,-0.095
31.5390625,-0.095
31.546875,-0.085
31.5546875,-0.085
31.5625,-0.105
31.5703125,-0.105
31.578125,-0.085
31.5859375,-0.095
31.59375,-0.075
31.6015625,-0.085
31.609375,-0.055
31.6171875,-0.045
31.625,-0.015
31.6328125,-0.015
31.640625,-0.015
31.6484375,0.035
31.65625,-0.015
31.6640625,-0.015
31.671875,-0.035
31.6796875,-0.085
31.6875,-0.145
31.6953125,-0.145
31.703125,-0.135
31.7109375,-0.115
31.71875,-0.135
31.7265625,-0.135
31.734375,-0.105
31.7421875,-0.105
31.75,-0.105
31.7578125,0.155
31.765625,0.565
31.7734375,0.955
31.78125,0.495
31.7890625,-0.205
31.796875,-0.325
31.8046875,-0.165
31.8125,-0.115
31.8203125,-0.105
31.828125,-0.115
31.8359375,-0.105
31.84375,-0.105
31.8515625,-0.085
31.859375,-0.075
31.8671875,-0.065
31.875,-0.065
31.8828125,-0.045
31.890625,-0.045
31.8984375,-0.025
31.90625,-0.005
31.9140625,0.015
31.921875,0.035
31.9296875,0.055
31.9375,0.065
31.9453125,0.105
31.953125,0.125
31.9609375,0.155
31.96875,0.165
31.9765625,0.175
31.984375,0.175
31.9921875,0.165
32,0.145
32.0078125,0.135
32.015625,0.115
32.0234375,0.115
32.03125,0.075
32.0390625,0.025
32.046875,-0.005
32.0546875,-0.045
32.0625,-0.055
32.0703125,-0.085
32.078125,-0.085
32.0859375,-0.065
32.09375,-0.075
32.1015625,-0.085
32.109375,-0.075
32.1171875,-0.075
32.125,-0.055
32.1328125,-0.055
32.140625,-0.065
32.1484375,-0.055
32.15625,-0.045
32.1640625,-0.055
32.171875,-0.045
32.1796875,-0.045
32.1875,-0.055
32.1953125,-0.045
32.203125,-0.065
32.2109375,-0.075
32.21875,-0.055
32.2265625,-0.045
32.234375,-0.025
32.2421875,-0.005
32.25,0.005
32.2578125,0.025
32.265625,0.025
32.2734375,0.045
32.28125,0.045
32.2890625,0.035
32.296875,0.005
32.3046875,-0.045
32.3125,-0.085
32.3203125,-0.095
32.328125,-0.105
32.3359375,-0.095
32.34375,-0.105
32.3515625,-0.105
32.359375,-0.085
32.3671875,-0.075
32.375,-0.085
32.3828125,-0.005
32.390625,0.355
32.3984375,0.835
32.40625,0.795
32.4140625,-0.065
32.421875,-0.305
32.4296875,-0.175
32.4375,-0.105
32.4453125,-0.075
32.453125,-0.105
32.4609375,-0.085
32.46875,-0.075
32.4765625,-0.055
32.484375,-0.045
32.4921875,-0.035
32.5,-0.025
32.5078125,-0.005
32.515625,0.005
32.5234375,0.015
32.53125,0.025
32.5390625,0.045
32.546875,0.075
32.5546875,0.085
32.5625,0.115
32.5703125,0.135
32.578125,0.155
32.5859375,0.175
32.59375,0.195
32.6015625,0.195
32.609375,0.205
32.6171875,0.195
32.625,0.185
32.6328125,0.165
32.640625,0.155
32.6484375,0.135
32.65625,0.105
32.6640625,0.065
32.671875,0.035
32.6796875,-0.005
32.6875,-0.015
32.6953125,-0.035
32.703125,-0.055
32.7109375,-0.025
32.71875,-0.035
32.7265625,-0.025
32.734375,-0.025
32.7421875,-0.025
32.75,-0.025
32.7578125,-0.015
32.765625,-0.035
32.7734375,-0.025
32.78125,-0.015
32.7890625,-0.025
32.796875,-0.025
32.8046875,-0.025
32.8125,-0.035
32.8203125,-0.025
32.828125,-0.035
32.8359375,-0.025
32.84375,-0.035
32.8515625,-0.045
32.859375,-0.025
32.8671875,-0.045
32.875,-0.015
32.8828125,0.015
32.890625,0.025
32.8984375,0.035
32.90625,0.045
32.9140625,0.065
32.921875,0.095
32.9296875,0.075
32.9375,0.045
32.9453125,0.035
32.953125,-0.045
32.9609375,-0.075
32.96875,-0.075
32.9765625,-0.075
32.984375,-0.085
32.9921875,-0.085
33,-0.085
33.0078125,-0.055
33.015625,-0.075
33.0234375,-0.075
33.03125,0.065
33.0390625,0.425
33.046875,0.865
33.0546875,0.745
33.0625,-0.075
33.0703125,-0.275
33.078125,-0.165
33.0859375,-0.085
33.09375,-0.065
33.1015625,-0.075
33.109375,-0.055
33.1171875,-0.045
33.125,-0.045
33.1328125,-0.035
33.140625,-0.045
33.1484375,-0.025
33.15625,-0.015
33.1640625,0.005
33.171875,0.015
33.1796875,0.015
33.1875,0.035
33.1953125,0.075
33.203125,0.055
33.2109375,0.105
33.21875,0.125
33.2265625,0.155
33.234375,0.195
33.2421875,0.195
33.25,0.195
33.2578125,0.205
33.265625,0.195
33.2734375,0.185
33.28125,0.185
33.2890625,0.165
33.296875,0.145
33.3046875,0.105
33.3125,0.065
33.3203125,0.015
33.328125,-0.005
33.3359375,-0.025
33.34375,-0.055
33.3515625,-0.065
33.359375,-0.065
33.3671875,-0.055
33.375,-0.055
33.3828125,-0.055
33.390625,-0.045
33.3984375,-0.035
33.40625,-0.045
33.4140625,-0.055
33.421875,-0.035
33.4296875,-0.015
33.4375,-0.045
33.4453125,-0.045
33.453125,-0.035
33.4609375,-0.045
33.46875,-0.045
33.4765625,-0.045
33.484375,-0.045
33.4921875,-0.045
33.5,-0.055
33.5078125,-0.045
33.515625,-0.065
33.5234375,-0.025
33.53125,0.005
33.5390625,0.015
33.546875,0.025
33.5546875,0.045
33.5625,0.055
33.5703125,0.095
33.578125,0.035
33.5859375,0.035
33.59375,-0.005
33.6015625,-0.025
33.609375,-0.085
33.6171875,-0.085
33.625,-0.075
33.6328125,-0.075
33.640625,-0.085
33.6484375,-0.075
33.65625,-0.065
33.6640625,-0.045
33.671875,-0.065
33.6796875,0.125
33.6875,0.495
33.6953125,0.925
33.703125,0.795
33.7109375,-0.065
33.71875,-0.285
33.7265625,-0.145
33.734375,-0.055
33.7421875,-0.055
33.75,-0.065
33.7578125,-0.075
33.765625,-0.065
33.7734375,-0.035
33.78125,-0.035
33.7890625,-0.025
33.796875,-0.005
33.8046875,-0.015
33.8125,-0.005
33.8203125,0.015
33.828125,0.015
33.8359375,0.045
33.84375,0.065
33.8515625,0.085
33.859375,0.115
33.8671875,0.135
33.875,0.135
33.8828125,0.205
33.890625,0.195
33.8984375,0.205
33.90625,0.205
33.9140625,0.205
33.921875,0.215
33.9296875,0.185
33.9375,0.175
33.9453125,0.175
33.953125,0.105
33.9609375,0.095
33.96875,0.055
33.9765625,0.005
33.984375,-0.025
33.9921875,-0.055
34,-0.055
34.0078125,-0.055
34.015625,-0.075
34.0234375,-0.065
34.03125,-0.055
34.0390625,-0.035
34.046875,-0.035
34.0546875,-0.035
34.0625,-0.045
34.0703125,-0.035
34.078125,-0.035
34.0859375,-0.045
34.09375,-0.035
34.1015625,-0.055
34.109375,-0.045
34.1171875,-0.045
34.125,-0.035
34.1328125,-0.045
34.140625,-0.055
34.1484375,-0.055
34.15625,-0.035
34.1640625,-0.055
34.171875,-0.025
34.1796875,-0.005
34.1875,0.025
34.1953125,0.025
34.203125,0.005
34.2109375,0.045
34.21875,0.045
34.2265625,0.035
34.234375,0.045
34.2421875,0.025
34.25,-0.055
34.2578125,-0.085
34.265625,-0.115
34.2734375,-0.115
34.28125,-0.095
34.2890625,-0.095
34.296875,-0.095
34.3046875,-0.085
34.3125,-0.095
34.3203125,-0.095
34.328125,-0.045
34.3359375,0.295
34.34375,0.745
34.3515625,0.865
34.359375,-0.015
34.3671875,-0.345
34.375,-0.195
34.3828125,-0.105
34.390625,-0.105
34.3984375,-0.085
34.40625,-0.075
34.4140625,-0.075
34.421875,-0.075
34.4296875,-0.065
34.4375,-0.065
34.4453125,-0.045
34.453125,-0.035
34.4609375,-0.015
34.46875,-0.005
34.4765625,0.015
34.484375,0.025
34.4921875,0.055
34.5,0.055
34.5078125,0.085
34.515625,0.105
34.5234375,0.135
34.53125,0.165
34.5390625,0.175
34.546875,0.205
34.5546875,0.195
34.5625,0.175
34.5703125,0.185
34.578125,0.165
34.5859375,0.165
34.59375,0.155
34.6015625,0.105
34.609375,0.085
34.6171875,0.025
34.625,-0.015
34.6328125,-0.035
34.640625,-0.075
34.6484375,-0.085
34.65625,-0.085
34.6640625,-0.085
34.671875,-0.075
34.6796875,-0.085
34.6875,-0.085
34.6953125,-0.065
34.703125,-0.095
34.7109375,-0.095
34.71875,-0.085
34.7265625,-0.095
34.734375,-0.075
34.7421875,-0.075
34.75,-0.075
34.7578125,-0.075
34.765625,-0.085
34.7734375,-0.085
34.78125,-0.095
34.7890625,-0.095
34.796875,-0.095
34.8046875,-0.115
34.8125,-0.105
34.8203125,-0.105
34.828125,-0.075
34.8359375,-0.065
34.84375,-0.045
34.8515625,-0.025
34.859375,-0.055
34.8671875,-0.025
34.875,0.005
34.8828125,-0.025
34.890625,-0.045
34.8984375,-0.055
34.90625,-0.125
34.9140625,-0.175
34.921875,-0.165
34.9296875,-0.165
34.9375,-0.175
34.9453125,-0.155
34.953125,-0.185
34.9609375,-0.155
34.96875,-0.185
34.9765625,-0.135
34.984375,0.095
34.9921875,0.475
35,0.805
35.0078125,0.295
35.015625,-0.275
35.0234375,-0.385
35.03125,-0.225
35.0390625,-0.125
35.046875,-0.135
35.0546875,-0.145
35.0625,-0.145
35.0703125,-0.125
35.078125,-0.115
35.0859375,-0.115
35.09375,-0.095
35.1015625,-0.105
35.109375,-0.095
35.1171875,-0.085
35.125,-0.075
35.1328125,-0.045
35.140625,-0.035
35.1484375,-0.025
35.15625,0.015
35.1640625,0.035
35.171875,0.065
35.1796875,0.085
35.1875,0.105
35.1953125,0.125
35.203125,0.135
35.2109375,0.135
35.21875,0.135
35.2265625,0.135
35.234375,0.125
35.2421875,0.095
35.25,0.055
35.2578125,0.025
35.265625,-0.025
35.2734375,-0.035
35.28125,-0.075
35.2890625,-0.095
35.296875,-0.125
35.3046875,-0.125
35.3125,-0.145
35.3203125,-0.145
35.328125,-0.135
35.3359375,-0.145
35.34375,-0.125
35.3515625,-0.155
35.359375,-0.145
35.3671875,-0.135
35.375,-0.125
35.3828125,-0.125
35.390625,-0.145
35.3984375,-0.125
35.40625,-0.115
35.4140625,-0.125
35.421875,-0.125
35.4296875,-0.135
35.4375,-0.145
35.4453125,-0.145
35.453125,-0.155
35.4609375,-0.135
35.46875,-0.115
35.4765625,-0.105
35.484375,-0.075
35.4921875,-0.065
35.5,-0.075
35.5078125,-0.065
35.515625,-0.045
35.5234375,-0.045
35.53125,-0.045
35.5390625,-0.085
35.546875,-0.145
35.5546875,-0.205
35.5625,-0.185
35.5703125,-0.215
35.578125,-0.215
35.5859375,-0.205
35.59375,-0.175
35.6015625,-0.185
35.609375,-0.185
35.6171875,-0.185
35.625,0.005
35.6328125,0.335
35.640625,0.725
35.6484375,0.465
35.65625,-0.235
35.6640625,-0.405
35.671875,-0.255
35.6796875,-0.185
35.6875,-0.205
35.6953125,-0.195
35.703125,-0.205
35.7109375,-0.155
35.71875,-0.165
35.7265625,-0.165
35.734375,-0.135
35.7421875,-0.105
35.75,-0.125
35.7578125,-0.105
35.765625,-0.085
35.7734375,-0.065
35.78125,-0.055
35.7890625,-0.035
35.796875,-0.005
35.8046875,0.015
35.8125,0.045
35.8203125,0.055
35.828125,0.075
35.8359375,0.095
35.84375,0.105
35.8515625,0.095
35.859375,0.105
35.8671875,0.105
35.875,0.095
35.8828125,0.065
35.890625,0.045
35.8984375,0.025
35.90625,-0.015
35.9140625,-0.055
35.921875,-0.075
35.9296875,-0.115
35.9375,-0.155
35.9453125,-0.145
35.953125,-0.155
35.9609375,-0.165
35.96875,-0.165
35.9765625,-0.125
35.984375,-0.135
35.9921875,-0.135
36,-0.115
36.0078125,-0.135
36.015625,-0.135
36.0234375,-0.125
36.03125,-0.135
36.0390625,-0.125
36.046875,-0.145
36.0546875,-0.145
36.0625,-0.135
36.0703125,-0.145
36.078125,-0.165
36.0859375,-0.155
36.09375,-0.155
36.1015625,-0.155
36.109375,-0.135
36.1171875,-0.115
36.125,-0.085
36.1328125,-0.085
36.140625,-0.105
36.1484375,-0.055
36.15625,-0.045
36.1640625,-0.045
36.171875,-0.085
36.1796875,-0.095
36.1875,-0.155
36.1953125,-0.185
36.203125,-0.215
36.2109375,-0.215
36.21875,-0.205
36.2265625,-0.205
36.234375,-0.195
36.2421875,-0.215
36.25,-0.195
36.2578125,-0.195
36.265625,-0.045
36.2734375,0.325
36.28125,0.705
36.2890625,0.435
36.296875,-0.225
36.3046875,-0.385
36.3125,-0.245
36.3203125,-0.185
36.328125,-0.185
36.3359375,-0.185
36.34375,-0.185
36.3515625,-0.145
36.359375,-0.145
36.3671875,-0.125
36.375,-0.105
36.3828125,-0.105
36.390625,-0.105
36.3984375,-0.085
36.40625,-0.065
36.4140625,-0.045
36.421875,-0.015
36.4296875,-0.005
36.4375,0.015
36.4453125,0.055
36.453125,0.065
36.4609375,0.115
36.46875,0.125
36.4765625,0.145
36.484375,0.165
36.4921875,0.145
36.5,0.145
36.5078125,0.155
36.515625,0.125
36.5234375,0.125
36.53125,0.105
36.5390625,0.065
36.546875,0.025
36.5546875,-0.015
36.5625,-0.055
36.5703125,-0.075
36.578125,-0.075
36.5859375,-0.085
36.59375,-0.085
36.6015625,-0.085
36.609375,-0.065
36.6171875,-0.075
36.625,5
36.6328125,5
36.640625,5
36.6484375,5
36.65625,5
36.6640625,5
36.671875,-0.065
36.6796875,-0.075
36.6875,-0.085
36.6953125,-0.085
36.703125,-0.105
36.7109375,-0.085
36.71875,-0.095
36.7265625,-0.085
36.734375,-0.075
36.7421875,-0.045
36.75,-0.035
36.7578125,-0.015
36.765625,-0.045
36.7734375,-0.005
36.78125,0.035
36.7890625,0.015
36.796875,0.015
36.8046875,-0.025
36.8125,-0.095
36.8203125,-0.135
36.828125,-0.145
36.8359375,-0.145
36.84375,-0.135
36.8515625,-0.135
36.859375,-0.135
36.8671875,-0.115
36.875,-0.125
36.8828125,-0.135
36.890625,-0.055
36.8984375,0.245
36.90625,0.655
36.9140625,0.655
36.921875,-0.025
36.9296875,-0.325
36.9375,-0.265
36.9453125,-0.145
36.953125,-0.145
36.9609375,-0.125
36.96875,-0.135
36.9765625,-0.115
36.984375,-0.105
36.9921875,-0.105
37,-0.105
37.0078125,-0.075
37.015625,-0.075
37.0234375,-0.065
37.03125,-0.035
37.0390625,-0.025
37.046875,-0.005
37.0546875,-0.005
37.0625,0.015
37.0703125,0.045
37.078125,0.075
37.0859375,0.075
37.09375,0.095
37.1015625,0.115
37.109375,0.135
37.1171875,0.135
37.125,0.135
37.1328125,0.115
37.140625,0.085
37.1484375,0.085
37.15625,0.075
37.1640625,0.045
37.171875,-0.005
37.1796875,-0.065
37.1875,-0.095
37.1953125,-0.115
37.203125,-0.145
37.2109375,-0.135
37.21875,-0.145
37.2265625,-0.135
37.234375,-0.125
37.2421875,-0.135
37.25,-0.135
37.2578125,-0.115
37.265625,-0.125
37.2734375,-0.105
37.28125,-0.105
37.2890625,-0.125
37.296875,-0.095
37.3046875,-0.095
37.3125,-0.085
37.3203125,-0.095
37.328125,-0.095
37.3359375,-0.095
37.34375,-0.095
37.3515625,-0.105
37.359375,-0.085
37.3671875,-0.055
37.375,-0.045
37.3828125,-0.035
37.390625,-0.045
37.3984375,-0.025
37.40625,-0.005
37.4140625,-0.025
37.421875,-0.025
37.4296875,-0.065
37.4375,-0.135
37.4453125,-0.175
37.453125,-0.165
37.4609375,-0.155
37.46875,-0.165
37.4765625,-0.165
37.484375,-0.145
37.4921875,-0.145
37.5,-0.135
37.5078125,-0.145
37.515625,-0.075
37.5234375,0.235
37.53125,0.635
37.5390625,0.785
37.546875,0.095
37.5546875,-0.335
37.5625,-0.265
37.5703125,-0.165
37.578125,-0.145
37.5859375,-0.125
37.59375,-0.125
37.6015625,-0.115
37.609375,-0.095
37.6171875,-0.095
37.625,-0.095
37.6328125,-0.075
37.640625,-0.065
37.6484375,-0.035
37.65625,-0.045
37.6640625,-0.025
37.671875,-0.005
37.6796875,0.025
37.6875,0.025
37.6953125,0.065
37.703125,0.065
37.7109375,0.115
37.71875,0.135
37.7265625,0.155
37.734375,0.175
37.7421875,0.165
37.75,0.165
37.7578125,0.165
37.765625,0.135
37.7734375,0.125
37.78125,0.115
37.7890625,0.095
37.796875,0.075
37.8046875,0.025
37.8125,-0.025
37.8203125,-0.085
37.828125,-0.155
37.8359375,-0.125
37.84375,-0.065
37.8515625,-0.055
37.859375,-0.055
37.8671875,-0.065
37.875,-0.075
37.8828125,-0.065
37.890625,-0.075
37.8984375,-0.065
37.90625,-0.055
37.9140625,-0.055
37.921875,-0.055
37.9296875,-0.035
37.9375,-0.065
37.9453125,-0.055
37.953125,-0.055
37.9609375,-0.045
37.96875,-0.015
37.9765625,-0.005
37.984375,0.005
37.9921875,0.025
38,0.065
38.0078125,0.045
38.015625,0.005
38.0234375,-0.015
38.03125,-0.075
38.0390625,-0.125
38.046875,-0.095
38.0546875,-0.115
38.0625,-0.115
38.0703125,-0.115
38.078125,-0.105
38.0859375,-0.095
38.09375,-0.095
38.1015625,-0.125
38.109375,-0.015
38.1171875,0.355
38.125,0.805
38.1328125,0.685
38.140625,-0.115
38.1484375,-0.355
38.15625,-0.255
38.1640625,-0.135
38.171875,-0.105
38.1796875,-0.105
38.1875,-0.095
38.1953125,-0.085
38.203125,-0.095
38.2109375,-0.085
38.21875,-0.075
38.2265625,-0.065
38.234375,-0.065
38.2421875,-0.045
38.25,-0.055
38.2578125,-0.015
38.265625,0.015
38.2734375,0.035
38.28125,0.055
38.2890625,0.065
38.296875,0.095
38.3046875,0.135
38.3125,0.145
38.3203125,0.145
38.328125,0.165
38.3359375,0.135
38.34375,0.135
38.3515625,0.155
38.359375,0.135
38.3671875,0.115
38.375,0.075
38.3828125,0.045
38.390625,-0.005
38.3984375,-0.025
38.40625,-0.055
38.4140625,-0.085
38.421875,-0.105
38.4296875,-0.085
38.4375,-0.095
38.4453125,-0.085
38.453125,-0.105
38.4609375,-0.085
38.46875,-0.085
38.4765625,-0.075
38.484375,-0.095
38.4921875,-0.115
38.5,-0.085
38.5078125,-0.065
38.515625,-0.085
38.5234375,-0.065
38.53125,-0.065
38.5390625,-0.075
38.546875,-0.045
38.5546875,-0.045
38.5625,-0.015
38.5703125,-0.015
38.578125,-0.045
38.5859375,0.015
38.59375,0.005
38.6015625,-0.005
38.609375,-0.035
38.6171875,-0.075
38.625,-0.115
38.6328125,-0.175
38.640625,-0.195
38.6484375,-0.155
38.65625,-0.145
38.6640625,-0.155
38.671875,-0.145
38.6796875,-0.145
38.6875,-0.165
38.6953125,-0.125
38.703125,0.155
38.7109375,0.585
38.71875,0.875
38.7265625,0.155
38.734375,-0.365
38.7421875,-0.345
38.75,-0.185
38.7578125,-0.165
38.765625,-0.175
38.7734375,-0.155
38.78125,-0.125
38.7890625,-0.135
38.796875,-0.125
38.8046875,-0.105
38.8125,-0.105
38.8203125,-0.095
38.828125,-0.085
38.8359375,-0.075
38.84375,-0.055
38.8515625,-0.045
38.859375,-0.025
38.8671875,-0.005
38.875,0.015
38.8828125,0.045
38.890625,0.055
38.8984375,0.085
38.90625,0.095
38.9140625,0.115
38.921875,0.105
38.9296875,0.095
38.9375,0.085
38.9453125,0.065
38.953125,0.045
38.9609375,0.025
38.96875,-0.025
38.9765625,-0.045
38.984375,-0.075
38.9921875,-0.105
39,-0.115
39.0078125,-0.155
39.015625,-0.165
39.0234375,-0.165
39.03125,-0.165
39.0390625,-0.165
39.046875,-0.145
39.0546875,-0.135
39.0625,-0.155
39.0703125,-0.165
39.078125,-0.155
39.0859375,-0.145
39.09375,-0.145
39.1015625,-0.155
39.109375,-0.145
39.1171875,-0.155
39.125,-0.175
39.1328125,-0.175
39.140625,-0.175
39.1484375,-0.145
39.15625,-0.115
39.1640625,-0.095
39.171875,-0.105
39.1796875,-0.095
39.1875,-0.105
39.1953125,-0.085
39.203125,-0.105
39.2109375,-0.115
39.21875,-0.165
39.2265625,-0.215
39.234375,-0.245
39.2421875,-0.225
39.25,-0.245
39.2578125,-0.255
39.265625,-0.235
39.2734375,-0.245
39.28125,-0.245
39.2890625,-0.225
39.296875,-0.195
39.3046875,0.025
39.3125,0.415
39.3203125,0.815
39.328125,0.275
39.3359375,-0.395
39.34375,-0.435
39.3515625,-0.235
39.359375,-0.185
39.3671875,-0.195
39.375,-0.205
39.3828125,-0.195
39.390625,-0.215
39.3984375,-0.195
39.40625,-0.185
39.4140625,-0.215
39.421875,-0.175
39.4296875,-0.135
39.4375,-0.135
39.4453125,-0.135
39.453125,-0.145
39.4609375,-0.115
39.46875,-0.105
39.4765625,-0.025
39.484375,-0.015
39.4921875,0.015
39.5,0.065
39.5078125,0.075
39.515625,0.055
39.5234375,0.085
39.53125,0.065
39.5390625,0.055
39.546875,0.055
39.5546875,0.015
39.5625,0.005
39.5703125,-0.035
39.578125,-0.075
39.5859375,-0.115
39.59375,-0.135
39.6015625,-0.175
39.609375,-0.175
39.6171875,-0.185
39.625,-0.195
39.6328125,-0.185
39.640625,-0.175
39.6484375,-0.165
39.65625,-0.155
39.6640625,-0.145
39.671875,-0.145
39.6796875,-0.145
39.6875,-0.165
39.6953125,-0.165
39.703125,-0.175
39.7109375,-0.155
39.71875,-0.185
39.7265625,-0.185
39.734375,-0.175
39.7421875,-0.175
39.75,-0.185
39.7578125,-0.175
39.765625,-0.185
39.7734375,-0.145
39.78125,-0.115
39.7890625,-0.105
39.796875,-0.105
39.8046875,-0.105
39.8125,-0.095
39.8203125,-0.065
39.828125,-0.105
39.8359375,-0.105
39.84375,-0.095
39.8515625,-0.185
39.859375,-0.265
39.8671875,-0.225
39.875,-0.195
39.8828125,-0.215
39.890625,-0.235
39.8984375,-0.215
39.90625,-0.225
39.9140625,-0.205
39.921875,-0.215
39.9296875,-0.185
39.9375,0.055
39.9453125,0.435
39.953125,0.685
39.9609375,0.075
39.96875,-0.445
39.9765625,-0.395
39.984375,-0.235
39.9921875,-0.195
40,-0.225
40.0078125,-0.215
40.015625,-0.195
40.0234375,-0.205
40.03125,-0.195
40.0390625,-0.175
40.046875,-0.155
40.0546875,-0.135
40.0625,-0.145
40.0703125,-0.145
40.078125,-0.115
40.0859375,-0.115
40.09375,-0.085
40.1015625,-0.005
40.109375,0.015
40.1171875,-0.005
40.125,0.015
40.1328125,0.075
40.140625,0.095
40.1484375,0.105
40.15625,0.105
40.1640625,0.125
40.171875,0.105
40.1796875,0.115
40.1875,0.095
40.1953125,0.075
40.203125,0.015
40.2109375,-0.005
40.21875,-0.045
40.2265625,-0.075
40.234375,-0.115
40.2421875,-0.135
40.25,-0.155
40.2578125,-0.215
40.265625,-0.175
40.2734375,-0.135
40.28125,-0.145
40.2890625,-0.155
40.296875,-0.115
40.3046875,-0.105
40.3125,-0.095
40.3203125,-0.115
40.328125,-0.145
40.3359375,-0.125
40.34375,-0.135
40.3515625,-0.115
40.359375,-0.115
40.3671875,-0.115
40.375,-0.115
40.3828125,-0.115
40.390625,-0.095
40.3984375,-0.075
40.40625,-0.075
40.4140625,-0.045
40.421875,-0.025
40.4296875,-0.035
40.4375,-0.015
40.4453125,-0.005
40.453125,-0.025
40.4609375,-0.035
40.46875,-0.065
40.4765625,-0.165
40.484375,-0.195
40.4921875,-0.135
40.5,-0.125
40.5078125,-0.155
40.515625,-0.175
40.5234375,-0.175
40.53125,-0.155
40.5390625,-0.155
40.546875,-0.175
40.5546875,-0.125
40.5625,0.165
40.5703125,0.545
40.578125,0.795
40.5859375,0.215
40.59375,-0.315
40.6015625,-0.345
40.609375,-0.225
40.6171875,-0.135
40.625,-0.135
40.6328125,-0.135
40.640625,-0.135
40.6484375,-0.125
40.65625,-0.125
40.6640625,-0.105
40.671875,-0.075
40.6796875,-0.065
40.6875,-0.075
40.6953125,-0.045
40.703125,-0.035
40.7109375,-0.025
40.71875,-0.025
40.7265625,0.005
40.734375,0.055
40.7421875,0.075
40.75,0.105
40.7578125,0.125
40.765625,0.135
40.7734375,0.165
40.78125,0.175
40.7890625,0.185
40.796875,0.195
40.8046875,0.175
40.8125,0.145
40.8203125,0.135
40.828125,0.075
40.8359375,0.055
40.84375,0.015
40.8515625,-0.015
40.859375,-0.035
40.8671875,-0.065
40.875,-0.095
40.8828125,-0.105
40.890625,-0.105
40.8984375,-0.115
40.90625,-0.125
40.9140625,-0.085
40.921875,-0.075
40.9296875,-0.085
40.9375,-0.095
40.9453125,-0.065
40.953125,-0.065
40.9609375,-0.065
40.96875,-0.055
40.9765625,-0.035
40.984375,-0.055
40.9921875,-0.055
41,-0.075
41.0078125,-0.055
41.015625,-0.035
41.0234375,0.005
41.03125,0.005
41.0390625,0.025
41.046875,0.025
41.0546875,0.035
41.0625,0.045
41.0703125,0.025
41.078125,0.005
41.0859375,-0.055
41.09375,-0.105
41.1015625,-0.115
41.109375,-0.115
41.1171875,-0.075
41.125,-0.115
41.1328125,-0.115
41.140625,-0.115
41.1484375,-0.085
41.15625,-0.105
41.1640625,0.015
41.171875,0.275
41.1796875,0.635
41.1875,0.915
41.1953125,0.205
41.203125,-0.335
41.2109375,-0.305
41.21875,-0.155
41.2265625,-0.105
41.234375,-0.045
41.2421875,-0.085
41.25,-0.095
41.2578125,-0.045
41.265625,-0.045
41.2734375,-0.035
41.28125,-0.045
41.2890625,-0.035
41.296875,0.015
41.3046875,0.025
41.3125,-0.015
41.3203125,-0.015
41.328125,0.025
41.3359375,0.055
41.34375,0.065
41.3515625,0.105
41.359375,0.185
41.3671875,0.155
41.375,0.165
41.3828125,0.195
41.390625,0.185
41.3984375,0.205
41.40625,0.185
41.4140625,0.165
41.421875,0.155
41.4296875,0.105
41.4375,0.065
41.4453125,0.035
41.453125,-0.015
41.4609375,-0.045
41.46875,-0.065
41.4765625,-0.035
41.484375,-0.105
41.4921875,-0.085
41.5,-0.115
41.5078125,-0.085
41.515625,-0.075
41.5234375,-0.085
41.53125,-0.095
41.5390625,-0.085
41.546875,-0.065
41.5546875,-0.055
41.5625,-0.055
41.5703125,-0.055
41.578125,-0.055
41.5859375,-0.065
41.59375,-0.065
41.6015625,-0.045
41.609375,-0.025
41.6171875,-0.045
41.625,-0.005
41.6328125,0.005
41.640625,-0.015
41.6484375,0.005
41.65625,0.015
41.6640625,0.135
41.671875,0.015
41.6796875,-0.045
41.6875,-0.005
41.6953125,-0.085
41.703125,-0.135
41.7109375,-0.135
41.71875,-0.115
41.7265625,-0.125
41.734375,-0.115
41.7421875,-0.125
41.75,-0.095
41.7578125,-0.115
41.765625,-0.145
41.7734375,0.005
41.78125,0.315
41.7890625,0.705
41.796875,0.945
41.8046875,0.145
41.8125,-0.335
41.8203125,-0.315
41.828125,-0.155
41.8359375,-0.125
41.84375,-0.115
41.8515625,-0.135
41.859375,-0.115
41.8671875,-0.095
41.875,-0.095
41.8828125,-0.055
41.890625,-0.075
41.8984375,-0.055
41.90625,-0.045
41.9140625,-0.025
41.921875,-0.035
41.9296875,-0.015
41.9375,0.025
41.9453125,0.055
41.953125,0.055
41.9609375,0.095
41.96875,0.165
41.9765625,0.175
41.984375,0.175
41.9921875,0.185
42,0.195
42.0078125,0.225
42.015625,0.155
42.0234375,0.165
42.03125,0.115
42.0390625,0.095
42.046875,0.055
42.0546875,0.005
42.0625,-0.005
42.0703125,-0.025
42.078125,-0.115
42.0859375,-0.095
42.09375,-0.105
42.1015625,-0.105
42.109375,-0.075
42.1171875,-0.095
42.125,-0.075
42.1328125,-0.085
42.140625,-0.085
42.1484375,-0.065
42.15625,-0.025
42.1640625,-0.065
42.171875,-0.085
42.1796875,-0.065
42.1875,-0.065
42.1953125,-0.055
42.203125,-0.005
42.2109375,-0.075
42.21875,-0.125
42.2265625,-0.085
42.234375,-0.075
42.2421875,-0.025
42.25,-0.065
42.2578125,-0.015
42.265625,0.025
42.2734375,-0.005
42.28125,-0.035
42.2890625,0.075
42.296875,0.025
42.3046875,-0.025
42.3125,-0.015
42.3203125,-0.025
42.328125,-0.095
42.3359375,-0.125
42.34375,-0.105
42.3515625,-0.125
42.359375,-0.105
42.3671875,-0.105
42.375,-0.055
42.3828125,-0.105
42.390625,-0.115
42.3984375,-0.055
42.40625,0.115
42.4140625,0.425
42.421875,0.855
42.4296875,0.655
42.4375,-0.205
42.4453125,-0.355
42.453125,-0.195
42.4609375,-0.075
42.46875,-0.085
42.4765625,-0.085
42.484375,-0.125
42.4921875,-0.125
42.5,-0.115
42.5078125,-0.075
42.515625,-0.085
42.5234375,-0.055
42.53125,-0.035
42.5390625,0.005
42.546875,-0.015
42.5546875,0.035
42.5625,0.025
42.5703125,0.005
42.578125,0.015
42.5859375,0.065
42.59375,0.115
42.6015625,0.145
42.609375,0.195
42.6171875,0.195
42.625,0.165
42.6328125,0.235
42.640625,0.185
42.6484375,0.235
42.65625,0.195
42.6640625,0.165
42.671875,0.135
42.6796875,0.075
42.6875,-0.005
42.6953125,-0.045
42.703125,-0.055
42.7109375,-0.065
42.71875,-0.095
42.7265625,-0.115
42.734375,-0.095
42.7421875,-0.065
42.75,-0.065
42.7578125,-0.075
42.765625,-0.085
42.7734375,-0.075
42.78125,-0.105
42.7890625,-0.085
42.796875,-0.075
42.8046875,-0.095
42.8125,-0.045
42.8203125,-0.065
42.828125,-0.065
42.8359375,-0.075
42.84375,-0.095
42.8515625,-0.085
42.859375,-0.105
42.8671875,-0.105
42.875,-0.095
42.8828125,-0.075
42.890625,-0.045
42.8984375,-0.015
42.90625,-0.025
42.9140625,-0.075
42.921875,-0.065
42.9296875,0.005
42.9375,-0.035
42.9453125,-0.045
42.953125,-0.055
42.9609375,-0.115
42.96875,-0.165
42.9765625,-0.165
42.984375,-0.145
42.9921875,-0.145
43,-0.155
43.0078125,-0.155
43.015625,-0.145
43.0234375,-0.165
43.03125,-0.175
43.0390625,-0.045
43.046875,0.255
43.0546875,0.635
43.0625,0.725
43.0703125,-0.045
43.078125,-0.365
43.0859375,-0.285
43.09375,-0.135
43.1015625,-0.105
43.109375,-0.155
43.1171875,-0.175
43.125,-0.125
43.1328125,-0.115
43.140625,-0.155
43.1484375,-0.135
43.15625,-0.095
43.1640625,-0.075
43.171875,-0.065
43.1796875,-0.055
43.1875,-0.035
43.1953125,0.035
43.203125,-0.035
43.2109375,0.025
43.21875,0.075
43.2265625,0.095
43.234375,0.085
43.2421875,0.065
43.25,0.125
43.2578125,0.155
43.265625,0.145
43.2734375,0.165
43.28125,0.155
43.2890625,0.145
43.296875,0.155
43.3046875,0.105
43.3125,0.085
43.3203125,0.035
43.328125,-0.025
43.3359375,-0.035
43.34375,-0.065
43.3515625,-0.075
43.359375,-0.085
43.3671875,-0.095
43.375,-0.105
43.3828125,-0.095
43.390625,-0.105
43.3984375,-0.125
43.40625,-0.085
43.4140625,-0.095
43.421875,-0.085
43.4296875,-0.095
43.4375,-0.095
43.4453125,-0.085
43.453125,-0.105
43.4609375,-0.075
43.46875,-0.085
43.4765625,-0.085
43.484375,-0.125
43.4921875,-0.115
43.5,-0.105
43.5078125,-0.095
43.515625,-0.095
43.5234375,-0.065
43.53125,-0.045
43.5390625,-0.025
43.546875,-0.015
43.5546875,0.005
43.5625,0.005
43.5703125,-0.025
43.578125,-0.015
43.5859375,-0.055
43.59375,-0.125
43.6015625,-0.155
43.609375,-0.125
43.6171875,-0.145
43.625,-0.155
43.6328125,-0.155
43.640625,-0.145
43.6484375,-0.135
43.65625,-0.135
43.6640625,-0.175
43.671875,0.015
43.6796875,0.355
43.6875,0.735
43.6953125,0.495
43.703125,-0.205
43.7109375,-0.335
43.71875,-0.265
43.7265625,-0.165
43.734375,-0.145
43.7421875,-0.165
43.75,-0.165
43.7578125,-0.135
43.765625,-0.135
43.7734375,-0.125
43.78125,-0.125
43.7890625,-0.135
43.796875,-0.115
43.8046875,-0.055
43.8125,-0.055
43.8203125,-0.055
43.828125,-0.045
43.8359375,0.005
43.84375,0.015
43.8515625,0.035
43.859375,0.075
43.8671875,0.105
43.875,0.145
43.8828125,0.125
43.890625,0.125
43.8984375,0.135
43.90625,0.145
43.9140625,0.135
43.921875,0.135
43.9296875,0.155
43.9375,0.095
43.9453125,0.055
43.953125,0.005
43.9609375,0.005
43.96875,-0.015
43.9765625,-0.075
43.984375,-0.085
43.9921875,-0.125
44,-0.135
44.0078125,-0.105
44.015625,-0.115
44.0234375,-0.105
44.03125,-0.105
44.0390625,-0.105
44.046875,-0.105
44.0546875,-0.105
44.0625,-0.095
44.0703125,-0.095
44.078125,-0.105
44.0859375,-0.095
44.09375,-0.105
44.1015625,-0.095
44.109375,-0.085
44.1171875,-0.105
44.125,-0.115
44.1328125,-0.075
44.140625,-0.085
44.1484375,-0.045
44.15625,-0.035
44.1640625,-0.015
44.171875,0.005
44.1796875,-0.005
44.1875,-0.045
44.1953125,-0.035
44.203125,-0.135
44.2109375,-0.155
44.21875,-0.135
44.2265625,-0.145
44.234375,-0.155
44.2421875,-0.145
44.25,-0.145
44.2578125,-0.155
44.265625,-0.145
44.2734375,-0.145
44.28125,-0.085
44.2890625,0.275
44.296875,0.715
44.3046875,0.715
44.3125,-0.095
44.3203125,-0.375
44.328125,-0.305
44.3359375,-0.165
44.34375,-0.145
44.3515625,-0.135
44.359375,-0.125
44.3671875,-0.115
44.375,-0.105
44.3828125,-0.105
44.390625,-0.095
44.3984375,-0.065
44.40625,-0.065
44.4140625,-0.045
44.421875,-0.065
44.4296875,-0.035
44.4375,-0.005
44.4453125,0.015
44.453125,0.055
44.4609375,0.075
44.46875,0.085
44.4765625,0.125
44.484375,0.155
44.4921875,0.185
44.5,0.165
44.5078125,0.135
44.515625,0.125
44.5234375,0.165
44.53125,0.155
44.5390625,0.135
44.546875,0.095
44.5546875,0.125
44.5625,-0.005
44.5703125,-0.085
44.578125,-0.075
44.5859375,-0.085
44.59375,-0.075
44.6015625,-0.115
44.609375,-0.125
44.6171875,-0.125
44.625,-0.045
44.6328125,-0.125
44.640625,-0.105
44.6484375,-0.075
44.65625,-0.085
44.6640625,-0.085
44.671875,-0.065
44.6796875,-0.095
44.6875,-0.075
44.6953125,-0.065
44.703125,-0.095
44.7109375,-0.065
44.71875,-0.065
44.7265625,-0.035
44.734375,-0.015
44.7421875,-0.015
44.75,-0.005
44.7578125,0.015
44.765625,0.005
44.7734375,-0.005
44.78125,-0.025
44.7890625,-0.075
44.796875,-0.135
44.8046875,-0.135
44.8125,-0.115
44.8203125,-0.125
44.828125,-0.125
44.8359375,-0.135
44.84375,-0.155
44.8515625,-0.175
44.859375,-0.175
44.8671875,-0.065
44.875,0.345
44.8828125,0.725
44.890625,1.105
44.8984375,0.275
44.90625,-0.475
44.9140625,-0.295
44.921875,-0.175
44.9296875,-0.065
44.9375,-0.095
44.9453125,-0.005
44.953125,-0.195
44.9609375,-0.215
44.96875,-0.065
44.9765625,-0.085
44.984375,-0.035
44.9921875,-0.095
45,0.155
45.0078125,-0.025
45.015625,-0.125
45.0234375,0.015
45.03125,0.025
45.0390625,0.015
45.046875,-0.005
45.0546875,0.005
45.0625,0.065
45.0703125,0.105
45.078125,0.115
45.0859375,0.115
45.09375,0.115
45.1015625,0.125
45.109375,0.105
45.1171875,0.085
45.125,0.075
45.1328125,0.025
45.140625,0.005
45.1484375,-0.025
45.15625,-0.015
45.1640625,-0.155
45.171875,-0.145
45.1796875,-0.045
45.1875,-0.115
45.1953125,-0.185
45.203125,-0.175
45.2109375,-0.085
45.21875,-0.035
45.2265625,-0.005
45.234375,-0.135
45.2421875,-0.125
45.25,-0.125
45.2578125,-0.165
45.265625,-0.145
45.2734375,-0.095
45.28125,-0.095
45.2890625,-0.115
45.296875,-0.105
45.3046875,-0.115
45.3125,-0.105
45.3203125,-0.075
45.328125,-0.095
45.3359375,-0.055
45.34375,-0.015
45.3515625,-0.035
45.359375,-0.045
45.3671875,-0.035
45.375,-0.035
45.3828125,-0.015
45.390625,-0.155
45.3984375,-0.005
45.40625,-0.115
45.4140625,-0.155
45.421875,-0.295
45.4296875,-0.275
45.4375,-0.165
45.4453125,-0.155
45.453125,-0.185
45.4609375,-0.175
45.46875,-0.145
45.4765625,0.125
45.484375,0.525
45.4921875,0.935
45.5,0.425
45.5078125,-0.305
45.515625,-0.355
45.5234375,-0.195
45.53125,-0.155
45.5390625,-0.135
45.546875,-0.145
45.5546875,-0.155
45.5625,-0.145
45.5703125,-0.145
45.578125,-0.155
45.5859375,-0.155
45.59375,-0.075
45.6015625,-0.045
45.609375,-0.055
45.6171875,-0.005
45.625,0.035
45.6328125,-0.025
45.640625,0.015
45.6484375,0.035
45.65625,0.055
45.6640625,0.115
45.671875,0.165
45.6796875,0.145
45.6875,0.165
45.6953125,0.195
45.703125,0.175
45.7109375,0.145
45.71875,0.165
45.7265625,0.155
45.734375,0.035
45.7421875,0.035
45.75,0.045
45.7578125,0.005
45.765625,-0.025
45.7734375,-0.055
45.78125,-0.115
45.7890625,-0.115
45.796875,-0.065
45.8046875,-0.135
45.8125,-0.115
45.8203125,-0.095
45.828125,-0.065
45.8359375,-0.085
45.84375,-0.085
45.8515625,-0.065
45.859375,-0.045
45.8671875,-0.115
45.875,-0.105
45.8828125,-0.065
45.890625,-0.105
45.8984375,-0.095
45.90625,-0.105
45.9140625,-0.075
45.921875,-0.115
45.9296875,-0.085
45.9375,-0.065
45.9453125,-0.025
45.953125,-0.075
45.9609375,-0.055
45.96875,-0.045
45.9765625,0.005
45.984375,-0.025
45.9921875,-0.035
46,-0.055
46.0078125,-0.095
46.015625,-0.145
46.0234375,-0.115
46.03125,-0.175
46.0390625,-0.185
46.046875,-0.145
46.0546875,-0.105
46.0625,-0.205
46.0703125,-0.185
46.078125,-0.175
46.0859375,-0.025
46.09375,0.395
46.1015625,0.785
46.109375,0.605
46.1171875,-0.205
46.125,-0.365
46.1328125,-0.235
46.140625,-0.165
46.1484375,-0.145
46.15625,-0.135
46.1640625,-0.145
46.171875,-0.125
46.1796875,-0.085
46.1875,-0.135
46.1953125,-0.115
46.203125,-0.125
46.2109375,-0.095
46.21875,-0.075
46.2265625,-0.055
46.234375,-0.035
46.2421875,-0.025
46.25,0.015
46.2578125,0.025
46.265625,0.035
46.2734375,0.065
46.28125,0.085
46.2890625,0.085
46.296875,0.105
46.3046875,0.155
46.3125,0.145
46.3203125,0.155
46.328125,0.125
46.3359375,0.135
46.34375,0.105
46.3515625,0.035
46.359375,0.015
46.3671875,-0.035
46.375,-0.075
46.3828125,-0.045
46.390625,-0.095
46.3984375,-0.095
46.40625,-0.105
46.4140625,-0.125
46.421875,-0.115
46.4296875,-0.095
46.4375,-0.115
46.4453125,-0.125
46.453125,-0.105
46.4609375,-0.115
46.46875,-0.145
46.4765625,-0.075
46.484375,-0.115
46.4921875,-0.055
46.5,-0.005
46.5078125,-0.085
46.515625,-0.165
46.5234375,-0.115
46.53125,-0.105
46.5390625,-0.115
46.546875,-0.125
46.5546875,-0.115
46.5625,-0.115
46.5703125,-0.075
46.578125,-0.065
46.5859375,-0.035
46.59375,-0.025
46.6015625,-0.045
46.609375,-0.005
46.6171875,-0.005
46.625,-0.015
46.6328125,-0.055
46.640625,-0.085
46.6484375,-0.115
46.65625,-0.155
46.6640625,-0.175
46.671875,-0.165
46.6796875,-0.085
46.6875,-0.195
46.6953125,-0.165
46.703125,-0.135
46.7109375,-0.135
46.71875,-0.125
46.7265625,0.075
46.734375,0.455
46.7421875,0.765
46.75,0.425
46.7578125,-0.225
46.765625,-0.295
46.7734375,-0.175
46.78125,-0.165
46.7890625,-0.145
46.796875,-0.115
46.8046875,-0.095
46.8125,-0.125
46.8203125,-0.115
46.828125,-0.105
46.8359375,-0.115
46.84375,-0.055
46.8515625,-0.025
46.859375,-0.045
46.8671875,-0.055
46.875,-0.055
46.8828125,0.005
46.890625,0.015
46.8984375,0.045
46.90625,0.035
46.9140625,0.085
46.921875,0.095
46.9296875,0.125
46.9375,0.135
46.9453125,0.155
46.953125,0.175
46.9609375,0.135
46.96875,0.135
46.9765625,0.125
46.984375,0.085
46.9921875,0.095
47,0.045
47.0078125,0.025
47.015625,0.005
47.0234375,-0.005
47.03125,-0.035
47.0390625,-0.055
47.046875,-0.115
47.0546875,-0.145
47.0625,-0.085
47.0703125,-0.095
47.078125,-0.065
47.0859375,-0.065
47.09375,-0.105
47.1015625,-0.085
47.109375,-0.075
47.1171875,-0.065
47.125,-0.135
47.1328125,-0.095
47.140625,-0.075
47.1484375,-0.125
47.15625,-0.115
47.1640625,-0.095
47.171875,-0.085
47.1796875,-0.095
47.1875,-0.095
47.1953125,-0.065
47.203125,-0.055
47.2109375,-0.055
47.21875,-0.105
47.2265625,-0.055
47.234375,0.035
47.2421875,-0.055
47.25,-0.125
47.2578125,-0.115
47.265625,-0.155
47.2734375,-0.205
47.28125,-0.145
47.2890625,-0.185
47.296875,-0.175
47.3046875,-0.205
47.3125,-0.225
47.3203125,-0.135
47.328125,-0.225
47.3359375,-0.175
47.34375,-0.085
47.3515625,0.235
47.359375,0.655
47.3671875,0.565
47.375,-0.115
47.3828125,-0.345
47.390625,-0.365
47.3984375,-0.215
47.40625,-0.145
47.4140625,-0.225
47.421875,-0.245
47.4296875,-0.185
47.4375,-0.195
47.4453125,-0.175
47.453125,-0.165
47.4609375,-0.165
47.46875,-0.165
47.4765625,-0.145
47.484375,-0.145
47.4921875,-0.085
47.5,-0.075
47.5078125,-0.055
47.515625,-0.035
47.5234375,-0.035
47.53125,0.035
47.5390625,0.065
47.546875,0.055
47.5546875,0.085
47.5625,0.095
47.5703125,0.115
47.578125,0.095
47.5859375,0.115
47.59375,0.115
47.6015625,0.085
47.609375,0.095
47.6171875,0.055
47.625,-0.005
47.6328125,-0.035
47.640625,-0.095
47.6484375,-0.115
47.65625,-0.105
47.6640625,-0.125
47.671875,-0.115
47.6796875,-0.075
47.6875,-0.105
47.6953125,-0.095
47.703125,-0.105
47.7109375,-0.065
47.71875,-0.115
47.7265625,-0.105
47.734375,-0.085
47.7421875,-0.065
47.75,-0.095
47.7578125,-0.075
47.765625,-0.075
47.7734375,-0.075
47.78125,-0.085
47.7890625,-0.065
47.796875,-0.095
47.8046875,-0.025
47.8125,0.095
47.8203125,-0.065
47.828125,-0.065
47.8359375,-0.035
47.84375,0.045
47.8515625,-0.035
47.859375,-0.025
47.8671875,-0.025
47.875,-0.155
47.8828125,-0.175
47.890625,-0.175
47.8984375,-0.205
47.90625,-0.145
47.9140625,-0.165
47.921875,-0.095
47.9296875,-0.175
47.9375,-0.145
47.9453125,-0.215
47.953125,-0.035
47.9609375,0.515
47.96875,0.835
47.9765625,0.435
47.984375,-0.265
47.9921875,-0.325
48,-0.245
48.0078125,-0.225
48.015625,-0.025
48.0234375,-0.195
48.03125,-0.265
48.0390625,-0.155
48.046875,-0.085
48.0546875,-0.135
48.0625,-0.165
48.0703125,-0.185
48.078125,-0.155
48.0859375,-0.155
48.09375,-0.115
48.1015625,-0.155
48.109375,-0.095
48.1171875,-0.045
48.125,0.035
48.1328125,0.155
48.140625,0.155
48.1484375,0.175
48.15625,0.225
48.1640625,0.205
48.171875,0.135
48.1796875,0.185
48.1875,0.175
48.1953125,0.125
48.203125,0.065
48.2109375,0.035
48.21875,-0.105
48.2265625,-0.255
48.234375,-0.205
48.2421875,-0.175
48.25,-0.345
48.2578125,-0.325
48.265625,-0.095
48.2734375,-0.015
48.28125,-0.005
48.2890625,-0.025
48.296875,0.035
48.3046875,-0.015
48.3125,0.005
48.3203125,0.025
48.328125,-0.015
48.3359375,0.035
48.34375,0.035
48.3515625,0.005
48.359375,0.045
48.3671875,0.085
48.375,0.065
48.3828125,0.045
48.390625,0.045
48.3984375,0.045
48.40625,0.015
48.4140625,0.065
48.421875,0.055
48.4296875,0.075
48.4375,0.105
48.4453125,0.105
48.453125,0.045
48.4609375,-0.015
48.46875,-0.035
48.4765625,-0.035
48.484375,-0.115
48.4921875,-0.135
48.5,-0.095
48.5078125,-0.135
48.515625,-0.085
48.5234375,0.005
48.53125,-0.065
48.5390625,-0.095
48.546875,-0.045
48.5546875,0.195
48.5625,0.585
48.5703125,0.885
48.578125,0.305
48.5859375,-0.185
48.59375,-0.245
48.6015625,-0.155
48.609375,-0.095
48.6171875,0.015
48.625,0.025
48.6328125,0.035
48.640625,0.025
48.6484375,0.075
48.65625,0.035
48.6640625,0.045
48.671875,0.025
48.6796875,0.065
48.6875,0.105
48.6953125,0.105
48.703125,0.135
48.7109375,0.155
48.71875,0.165
48.7265625,0.175
48.734375,0.145
48.7421875,0.195
48.75,0.205
48.7578125,0.215
48.765625,0.195
48.7734375,0.195
48.78125,0.185
48.7890625,0.215
48.796875,0.205
48.8046875,0.125
48.8125,0.185
48.8203125,0.145
48.828125,0.075
48.8359375,0.045
48.84375,0.015
48.8515625,-0.005
48.859375,0.025
48.8671875,-0.035
48.875,-0.025
48.8828125,-0.035
48.890625,-0.045
48.8984375,-0.015
48.90625,-0.015
48.9140625,0.005
48.921875,-0.035
48.9296875,-0.005
48.9375,-0.005
48.9453125,0.055
48.953125,-0.045
48.9609375,-0.035
48.96875,0.065
48.9765625,-0.025
48.984375,-0.075
48.9921875,-0.015
49,-0.025
49.0078125,0.035
49.015625,-0.035
49.0234375,0.005
49.03125,0.145
49.0390625,0.005
49.046875,-0.065
49.0546875,0.075
49.0625,-0.175
49.0703125,-0.215
49.078125,-0.035
49.0859375,-0.115
49.09375,-0.195
49.1015625,-0.115
49.109375,-0.065
49.1171875,-0.175
49.125,-0.255
49.1328125,0.005
49.140625,-0.025
49.1484375,0.275
49.15625,0.715
49.1640625,0.375
49.171875,-0.265
49.1796875,-0.275
49.1875,-0.345
49.1953125,-0.165
49.203125,-0.075
49.2109375,-0.285
49.21875,-0.125
49.2265625,-0.065
49.234375,-0.245
49.2421875,-0.175
49.25,-0.155
49.2578125,-0.085
49.265625,-0.165
49.2734375,-0.095
49.28125,-0.015
49.2890625,-0.015
49.296875,-0.095
49.3046875,-0.105
49.3125,0.035
49.3203125,0.025
49.328125,0.185
49.3359375,-0.045
49.34375,-0.015
49.3515625,0.075
49.359375,0.145
49.3671875,0.045
49.375,0.105
49.3828125,0.035
49.390625,0.225
49.3984375,-0.105
49.40625,-0.095
49.4140625,-0.045
49.421875,0.025
49.4296875,-0.075
49.4375,-0.205
49.4453125,-0.185
49.453125,-0.185
49.4609375,-0.185
49.46875,-0.235
49.4765625,-0.235
49.484375,-0.155
49.4921875,-0.205
49.5,-0.235
49.5078125,-0.185
49.515625,-0.205
49.5234375,-0.205
49.53125,-0.205
49.5390625,-0.175
49.546875,-0.165
49.5546875,-0.185
49.5625,-0.155
49.5703125,-0.075
49.578125,-0.085
49.5859375,-0.025
49.59375,-0.185
49.6015625,-0.135
49.609375,-0.045
49.6171875,-0.085
49.625,-0.105
49.6328125,-0.195
49.640625,-0.195
49.6484375,-0.255
49.65625,-0.225
49.6640625,-0.235
49.671875,-0.105
49.6796875,-0.195
49.6875,-0.195
49.6953125,-0.165
49.703125,-0.105
49.7109375,-0.165
49.71875,-0.065
49.7265625,0.245
49.734375,0.725
49.7421875,0.725
49.75,-0.055
49.7578125,-0.345
49.765625,-0.285
49.7734375,-0.145
49.78125,-0.075
49.7890625,-0.075
49.796875,-0.115
49.8046875,-0.035
49.8125,-0.085
49.8203125,-0.075
49.828125,-0.055
49.8359375,-0.045
49.84375,-0.035
49.8515625,-0.015
49.859375,-0.055
49.8671875,-0.095
49.875,-0.065
49.8828125,-0.095
49.890625,-0.105
49.8984375,-0.065
49.90625,-0.015
49.9140625,-0.145
49.921875,-0.085
49.9296875,-0.015
49.9375,0.195
49.9453125,0.295
49.953125,0.245
49.9609375,0.195
49.96875,0.225
49.9765625,0.175
49.984375,0.095
49.9921875,0.125
50,0.175
50.0078125,0.105
50.015625,0.055
50.0234375,0.045
50.03125,0.015
50.0390625,-0.005
50.046875,0.035
50.0546875,0.055
50.0625,-0.015
50.0703125,-0.025
50.078125,-0.085
50.0859375,-0.105
50.09375,-0.045
50.1015625,-0.025
50.109375,0.105
50.1171875,0.055
50.125,0.095
50.1328125,0.085
50.140625,0.025
50.1484375,0.035
50.15625,0.135
50.1640625,0.185
50.171875,0.185
50.1796875,0.095
50.1875,0.205
50.1953125,0.195
50.203125,0.165
50.2109375,0.065
50.21875,0.105
50.2265625,0.055
50.234375,-0.015
50.2421875,-0.035
50.25,-0.095
50.2578125,-0.105
50.265625,-0.065
50.2734375,-0.045
50.28125,-0.085
50.2890625,-0.105
50.296875,-0.125
50.3046875,-0.025
50.3125,0.305
50.3203125,0.775
50.328125,0.745
50.3359375,-0.115
50.34375,-0.435
50.3515625,-0.325
50.359375,-0.215
50.3671875,-0.205
50.375,-0.205
50.3828125,-0.205
50.390625,-0.185
50.3984375,-0.175
50.40625,-0.155
50.4140625,-0.155
50.421875,-0.105
50.4296875,-0.095
50.4375,-0.095
50.4453125,-0.055
50.453125,-0.035
50.4609375,-0.045
50.46875,-0.025
50.4765625,0.025
50.484375,0.075
50.4921875,0.105
50.5,0.115
50.5078125,0.115
50.515625,0.175
50.5234375,0.145
50.53125,0.175
50.5390625,0.175
50.546875,0.175
50.5546875,0.105
50.5625,0.065
50.5703125,0.065
50.578125,0.005
50.5859375,-0.035
50.59375,-0.085
50.6015625,-0.115
50.609375,-0.135
50.6171875,-0.125
50.625,-0.175
50.6328125,-0.185
50.640625,-0.185
50.6484375,-0.125
50.65625,-0.155
50.6640625,-0.175
50.671875,-0.145
50.6796875,-0.135
50.6875,-0.125
50.6953125,-0.125
50.703125,-0.155
50.7109375,-0.135
50.71875,-0.155
50.7265625,-0.095
50.734375,-0.105
50.7421875,-0.105
50.75,-0.075
50.7578125,-0.085
50.765625,-0.085
50.7734375,-0.035
50.78125,-0.045
50.7890625,-0.055
50.796875,-0.095
50.8046875,-0.115
50.8125,-0.165
50.8203125,-0.225
50.828125,-0.255
50.8359375,-0.245
50.84375,-0.255
50.8515625,-0.215
50.859375,-0.205
50.8671875,-0.205
50.875,-0.195
50.8828125,-0.115
50.890625,0.155
50.8984375,0.655
50.90625,0.885
50.9140625,0.005
50.921875,-0.455
50.9296875,-0.325
50.9375,-0.205
50.9453125,-0.205
50.953125,-0.235
50.9609375,-0.215
50.96875,-0.205
50.9765625,-0.205
50.984375,-0.155
50.9921875,-0.145
51,-0.105
51.0078125,-0.135
51.015625,-0.155
51.0234375,-0.115
51.03125,-0.105
51.0390625,-0.095
51.046875,-0.055
51.0546875,-0.005
51.0625,0.045
51.0703125,0.095
51.078125,0.085
51.0859375,0.105
51.09375,0.155
51.1015625,0.115
51.109375,0.145
51.1171875,0.135
51.125,0.125
51.1328125,0.105
51.140625,0.015
51.1484375,-0.015
51.15625,-0.045
51.1640625,-0.095
51.171875,-0.175
51.1796875,-0.155
51.1875,-0.175
51.1953125,-0.175
51.203125,-0.175
51.2109375,-0.205
51.21875,-0.205
51.2265625,-0.185
51.234375,-0.185
51.2421875,-0.185
51.25,-0.125
51.2578125,-0.175
51.265625,-0.125
51.2734375,-0.135
51.28125,-0.145
51.2890625,-0.105
51.296875,-0.085
51.3046875,-0.105
51.3125,-0.135
51.3203125,-0.165
51.328125,-0.135
51.3359375,-0.115
51.34375,-0.085
51.3515625,-0.075
51.359375,-0.065
51.3671875,-0.065
51.375,-0.095
51.3828125,-0.055
51.390625,-0.055
51.3984375,-0.045
51.40625,-0.065
51.4140625,-0.115
51.421875,-0.145
51.4296875,-0.175
51.4375,-0.175
51.4453125,-0.165
51.453125,-0.195
51.4609375,-0.175
51.46875,-0.165
51.4765625,-0.155
51.484375,-0.165
51.4921875,-0.025
51.5,0.325
51.5078125,0.755
51.515625,0.695
51.5234375,-0.145
51.53125,-0.395
51.5390625,-0.275
51.546875,-0.155
51.5546875,-0.135
51.5625,-0.165
51.5703125,-0.175
51.578125,-0.175
51.5859375,-0.135
51.59375,-0.115
51.6015625,-0.115
51.609375,-0.115
51.6171875,-0.085
51.625,-0.075
51.6328125,-0.075
51.640625,-0.035
51.6484375,-0.015
51.65625,0.015
51.6640625,0.055
51.671875,0.085
51.6796875,0.115
51.6875,0.145
51.6953125,0.195
51.703125,0.215
51.7109375,0.215
51.71875,0.215
51.7265625,0.225
51.734375,0.205
51.7421875,0.165
51.75,0.165
51.7578125,0.125
51.765625,0.035
51.7734375,0.005
51.78125,-0.035
51.7890625,-0.075
51.796875,-0.075
51.8046875,-0.115
51.8125,-0.145
51.8203125,-0.115
51.828125,-0.125
51.8359375,-0.125
51.84375,-0.125
51.8515625,-0.105
51.859375,-0.085
51.8671875,-0.105
51.875,-0.075
51.8828125,-0.085
51.890625,-0.095
51.8984375,-0.075
51.90625,-0.075
51.9140625,-0.085
51.921875,-0.105
51.9296875,-0.095
51.9375,-0.115
51.9453125,-0.125
51.953125,-0.055
51.9609375,-0.055
51.96875,-0.045
51.9765625,-0.035
51.984375,-0.015
51.9921875,-0.015
52,-0.025
52.0078125,0.015
52.015625,-0.005
52.0234375,-0.015
52.03125,-0.015
52.0390625,-0.095
52.046875,-0.175
52.0546875,-0.135
52.0625,-0.135
52.0703125,-0.145
52.078125,-0.155
52.0859375,-0.135
52.09375,-0.125
52.1015625,-0.125
52.109375,-0.135
52.1171875,0.075
52.125,0.465
52.1328125,0.885
52.140625,0.545
52.1484375,-0.195
52.15625,-0.355
52.1640625,-0.205
52.171875,-0.145
52.1796875,-0.115
52.1875,-0.095
52.1953125,-0.115
52.203125,-0.105
52.2109375,-0.085
52.21875,-0.095
52.2265625,-0.065
52.234375,-0.045
52.2421875,-0.045
52.25,-0.015
52.2578125,-0.005
52.265625,0.005
52.2734375,0.005
52.28125,0.055
52.2890625,0.075
52.296875,0.105
52.3046875,0.135
52.3125,0.165
52.3203125,0.215
52.328125,0.195
52.3359375,0.215
52.34375,0.225
52.3515625,0.215
52.359375,0.185
52.3671875,0.185
52.375,0.145
52.3828125,0.105
52.390625,0.055
52.3984375,0.025
52.40625,-0.025
52.4140625,-0.045
52.421875,-0.085
52.4296875,-0.105
52.4375,-0.105
52.4453125,-0.085
52.453125,-0.115
52.4609375,-0.105
52.46875,-0.105
52.4765625,-0.085
52.484375,-0.095
52.4921875,-0.085
52.5,-0.095
52.5078125,-0.075
52.515625,-0.095
52.5234375,-0.105
52.53125,-0.085
52.5390625,-0.085
52.546875,-0.105
52.5546875,-0.105
52.5625,-0.105
52.5703125,-0.105
52.578125,-0.105
52.5859375,-0.115
52.59375,-0.095
52.6015625,-0.105
52.609375,-0.065
52.6171875,-0.045
52.625,-0.035
52.6328125,-0.025
52.640625,-0.015
52.6484375,0.005
52.65625,0.025
52.6640625,0.005
52.671875,0.015
52.6796875,-0.045
52.6875,-0.135
52.6953125,-0.145
52.703125,-0.165
52.7109375,-0.155
52.71875,-0.165
52.7265625,-0.135
52.734375,-0.125
52.7421875,-0.145
52.75,-0.125
52.7578125,-0.145
52.765625,-0.045
52.7734375,0.305
52.78125,0.745
52.7890625,0.825
52.796875,-0.015
52.8046875,-0.375
52.8125,-0.275
52.8203125,-0.145
52.828125,-0.145
52.8359375,-0.135
52.84375,-0.125
52.8515625,-0.115
52.859375,-0.095
52.8671875,-0.085
52.875,-0.085
52.8828125,-0.055
52.890625,-0.045
52.8984375,-0.005
52.90625,0.005
52.9140625,-0.005
52.921875,0.025
52.9296875,0.035
52.9375,0.075
52.9453125,0.095
52.953125,0.115
52.9609375,0.155
52.96875,0.195
52.9765625,0.225
52.984375,0.205
52.9921875,0.235
53,0.235
53.0078125,0.215
53.015625,0.165
53.0234375,0.175
53.03125,0.145
53.0390625,0.125
53.046875,0.095
53.0546875,0.065
53.0625,-0.005
53.0703125,-0.035
53.078125,-0.055
53.0859375,-0.085
53.09375,-0.095
53.1015625,-0.065
53.109375,-0.105
53.1171875,-0.075
53.125,-0.075
53.1328125,-0.095
53.140625,-0.055
53.1484375,-0.035
53.15625,-0.065
53.1640625,-0.055
53.171875,-0.055
53.1796875,-0.085
53.1875,-0.085
53.1953125,-0.045
53.203125,-0.105
53.2109375,-0.145
53.21875,-0.085
53.2265625,-0.105
53.234375,-0.105
53.2421875,-0.155
53.25,-0.105
53.2578125,-0.155
53.265625,-0.135
53.2734375,-0.035
53.28125,-0.035
53.2890625,-0.035
53.296875,0.025
53.3046875,-0.045
53.3125,-0.025
53.3203125,0.015
53.328125,-0.035
53.3359375,-0.065
53.34375,-0.085
53.3515625,-0.125
53.359375,-0.145
53.3671875,-0.185
53.375,-0.135
53.3828125,-0.165
53.390625,-0.165
53.3984375,-0.175
53.40625,-0.145
53.4140625,-0.115
53.421875,-0.275
53.4296875,-0.095
53.4375,0.365
53.4453125,0.735
53.453125,0.375
53.4609375,-0.245
53.46875,-0.345
53.4765625,-0.245
53.484375,-0.145
53.4921875,-0.125
53.5,-0.145
53.5078125,-0.175
53.515625,-0.145
53.5234375,-0.155
53.53125,-0.135
53.5390625,-0.115
53.546875,-0.115
53.5546875,-0.115
53.5625,-0.095
53.5703125,-0.045
53.578125,-0.035
53.5859375,-0.095
53.59375,-0.045
53.6015625,0.005
53.609375,0.015
53.6171875,0.045
53.625,0.085
53.6328125,0.125
53.640625,0.115
53.6484375,0.125
53.65625,0.155
53.6640625,0.145
53.671875,0.155
53.6796875,0.115
53.6875,0.085
53.6953125,0.025
53.703125,0.025
53.7109375,0.015
53.71875,-0.055
53.7265625,-0.075
53.734375,-0.125
53.7421875,-0.105
53.75,-0.185
53.7578125,-0.145
53.765625,-0.185
53.7734375,-0.195
53.78125,-0.175
53.7890625,-0.175
53.796875,-0.115
53.8046875,-0.135
53.8125,-0.155
53.8203125,-0.135
53.828125,-0.145
53.8359375,-0.165
53.84375,-0.155
53.8515625,-0.145
53.859375,-0.155
53.8671875,-0.165
53.875,-0.155
53.8828125,-0.155
53.890625,-0.165
53.8984375,-0.155
53.90625,-0.185
53.9140625,-0.165
53.921875,-0.165
53.9296875,-0.095
53.9375,-0.115
53.9453125,-0.075
53.953125,-0.085
53.9609375,-0.065
53.96875,-0.085
53.9765625,-0.035
53.984375,-0.075
53.9921875,-0.095
54,-0.165
54.0078125,-0.195
54.015625,-0.215
54.0234375,-0.205
54.03125,-0.175
54.0390625,-0.185
54.046875,-0.205
54.0546875,-0.175
54.0625,-0.165
54.0703125,-0.185
54.078125,-0.095
54.0859375,0.295
54.09375,0.655
54.1015625,0.595
54.109375,-0.145
54.1171875,-0.425
54.125,-0.375
54.1328125,-0.245
54.140625,-0.185
54.1484375,-0.165
54.15625,-0.185
54.1640625,-0.195
54.171875,-0.125
54.1796875,-0.155
54.1875,-0.135
54.1953125,-0.095
54.203125,-0.125
54.2109375,-0.135
54.21875,-0.065
54.2265625,-0.055
54.234375,-0.015
54.2421875,-0.015
54.25,-0.015
54.2578125,0.025
54.265625,0.095
54.2734375,0.075
54.28125,0.125
54.2890625,0.145
54.296875,0.125
54.3046875,0.135
54.3125,0.145
54.3203125,0.105
54.328125,0.085
54.3359375,0.065
54.34375,0.035
54.3515625,-0.005
54.359375,-0.045
54.3671875,-0.085
54.375,-0.145
54.3828125,-0.145
54.390625,-0.165
54.3984375,-0.145
54.40625,-0.165
54.4140625,-0.175
54.421875,-0.175
54.4296875,-0.145
54.4375,-0.125
54.4453125,-0.135
54.453125,-0.145
54.4609375,-0.105
54.46875,-0.105
54.4765625,-0.145
54.484375,-0.145
54.4921875,-0.145
54.5,-0.125
54.5078125,-0.105
54.515625,-0.175
54.5234375,-0.165
54.53125,-0.145
54.5390625,-0.145
54.546875,-0.125
54.5546875,-0.065
54.5625,-0.015
54.5703125,-0.045
54.578125,-0.085
54.5859375,-0.095
54.59375,-0.075
54.6015625,-0.105
54.609375,-0.105
54.6171875,-0.135
54.625,-0.225
54.6328125,-0.205
54.640625,-0.245
54.6484375,-0.145
54.65625,-0.195
54.6640625,-0.235
54.671875,-0.205
54.6796875,-0.185
54.6875,-0.195
54.6953125,-0.035
54.703125,0.315
54.7109375,0.685
54.71875,0.535
54.7265625,-0.185
54.734375,-0.435
54.7421875,-0.265
54.75,-0.225
54.7578125,-0.215
54.765625,-0.205
54.7734375,-0.185
54.78125,-0.175
54.7890625,-0.165
54.796875,-0.165
54.8046875,-0.155
54.8125,-0.165
54.8203125,-0.135
54.828125,-0.145
54.8359375,-0.085
54.84375,-0.115
54.8515625,-0.035
54.859375,-0.025
54.8671875,-0.035
54.875,0.005
54.8828125,0.025
54.890625,0.045
54.8984375,0.105
54.90625,0.095
54.9140625,0.125
54.921875,0.145
54.9296875,0.135
54.9375,0.165
54.9453125,0.175
54.953125,0.095
54.9609375,0.045
54.96875,0.035
54.9765625,-0.035
54.984375,-0.065
54.9921875,-0.095
55,-0.135
55.0078125,-0.145
55.015625,-0.155
55.0234375,-0.145
55.03125,-0.165
55.0390625,-0.115
55.046875,-0.155
55.0546875,-0.155
55.0625,-0.145
55.0703125,-0.135
55.078125,-0.145
55.0859375,-0.115
55.09375,-0.125
55.1015625,-0.125
55.109375,-0.105
55.1171875,-0.135
55.125,-0.115
55.1328125,-0.105
55.140625,-0.185
55.1484375,-0.095
55.15625,-0.095
55.1640625,-0.115
55.171875,-0.115
55.1796875,-0.075
55.1875,-0.055
55.1953125,-0.045
55.203125,-0.075
55.2109375,-0.025
55.21875,-0.005
55.2265625,-0.005
55.234375,-0.015
55.2421875,-0.035
55.25,-0.085
55.2578125,-0.135
55.265625,-0.165
55.2734375,-0.155
55.28125,-0.125
55.2890625,-0.135
55.296875,-0.115
55.3046875,-0.125
55.3125,-0.115
55.3203125,-0.125
55.328125,-0.075
55.3359375,0.205
55.34375,0.605
55.3515625,0.855
55.359375,0.245
55.3671875,-0.325
55.375,-0.345
55.3828125,-0.165
55.390625,-0.115
55.3984375,-0.115
55.40625,-0.115
55.4140625,-0.085
55.421875,-0.055
55.4296875,-0.035
55.4375,-0.065
55.4453125,-0.065
55.453125,-0.045
55.4609375,-0.015
55.46875,-0.005
55.4765625,0.005
55.484375,0.015
55.4921875,0.055
55.5,0.065
55.5078125,0.095
55.515625,0.135
55.5234375,0.155
55.53125,0.205
55.5390625,0.235
55.546875,0.255
55.5546875,0.245
55.5625,0.255
55.5703125,0.245
55.578125,0.225
55.5859375,0.195
55.59375,0.165
55.6015625,0.125
55.609375,0.085
55.6171875,0.035
55.625,-0.005
55.6328125,-0.045
55.640625,-0.075
55.6484375,-0.085
55.65625,-0.075
55.6640625,-0.065
55.671875,-0.085
55.6796875,-0.085
55.6875,-0.075
55.6953125,-0.055
55.703125,-0.065
55.7109375,-0.065
55.71875,-0.065
55.7265625,-0.065
55.734375,-0.055
55.7421875,-0.055
55.75,-0.065
55.7578125,-0.045
55.765625,-0.065
55.7734375,-0.055
55.78125,-0.055
55.7890625,-0.055
55.796875,-0.065
55.8046875,-0.065
55.8125,-0.045
55.8203125,-0.055
55.828125,-0.055
55.8359375,-0.025
55.84375,-0.005
55.8515625,0.015
55.859375,0.045
55.8671875,0.025
55.875,0.055
55.8828125,0.075
55.890625,0.055
55.8984375,0.055
55.90625,0.035
55.9140625,-0.035
55.921875,-0.075
55.9296875,-0.075
55.9375,-0.075
55.9453125,-0.075
55.953125,-0.095
55.9609375,-0.075
55.96875,-0.075
55.9765625,-0.085
55.984375,-0.035
55.9921875,0.195
56,0.545
56.0078125,0.905
56.015625,0.575
56.0234375,-0.165
56.03125,-0.315
56.0390625,-0.145
56.046875,-0.055
56.0546875,-0.065
56.0625,-0.065
56.0703125,-0.055
56.078125,-0.055
56.0859375,-0.045
56.09375,-0.035
56.1015625,-0.025
56.109375,0.005
56.1171875,-0.005
56.125,0.015
56.1328125,0.035
56.140625,0.065
56.1484375,0.075
56.15625,0.105
56.1640625,0.125
56.171875,0.155
56.1796875,0.185
56.1875,0.195
56.1953125,0.225
56.203125,0.255
56.2109375,0.285
56.21875,0.255
56.2265625,0.265
56.234375,0.265
56.2421875,0.255
56.25,0.235
56.2578125,0.225
56.265625,0.155
56.2734375,0.115
56.28125,0.075
56.2890625,0.045
56.296875,0.015
56.3046875,-0.015
56.3125,-0.035
56.3203125,-0.035
56.328125,-0.045
56.3359375,-0.025
56.34375,-0.035
56.3515625,-0.025
56.359375,-0.005
56.3671875,-0.015
56.375,-0.025
56.3828125,-0.015
56.390625,-0.025
56.3984375,-0.015
56.40625,-0.005
56.4140625,-0.025
56.421875,-0.025
56.4296875,-0.025
56.4375,-0.035
56.4453125,-0.025
56.453125,-0.045
56.4609375,-0.035
56.46875,-0.035
56.4765625,-0.035
56.484375,-0.035
56.4921875,0.005
56.5,0.025
56.5078125,0.035
56.515625,-0.005
56.5234375,0.025
56.53125,0.055
56.5390625,0.055
56.546875,0.035
56.5546875,0.005
56.5625,-0.065
56.5703125,-0.105
56.578125,-0.115
56.5859375,-0.105
56.59375,-0.105
56.6015625,-0.105
56.609375,-0.105
56.6171875,-0.115
56.625,-0.105
56.6328125,-0.105
56.640625,0.105
56.6484375,0.465
