Time,Signal_uV
0,-0.115
0.0078125,-0.125
0.015625,-0.145
0.0234375,-0.155
0.03125,-0.155
0.0390625,-0.165
0.046875,-0.165
0.0546875,-0.145
0.0625,-0.115
0.0703125,-0.075
0.078125,-0.045
0.0859375,-0.025
0.09375,0.025
0.1015625,0.085
0.109375,0.085
0.1171875,0.095
0.125,0.015
0.1328125,-0.015
0.140625,-0.065
0.1484375,-0.135
0.15625,-0.175
0.1640625,-0.215
0.171875,-0.215
0.1796875,-0.185
0.1875,-0.235
0.1953125,-0.485
0.203125,-0.605
0.2109375,-0.315
0.21875,0.415
0.2265625,0.775
0.234375,0.335
0.2421875,-0.205
0.25,-0.355
0.2578125,-0.325
0.265625,-0.205
0.2734375,-0.165
0.28125,-0.165
0.2890625,-0.165
0.296875,-0.155
0.3046875,-0.145
0.3125,-0.155
0.3203125,-0.115
0.328125,-0.115
0.3359375,-0.115
0.34375,-0.085
0.3515625,-0.065
0.359375,-0.065
0.3671875,0.005
0.375,0.015
0.3828125,0.035
0.390625,0.095
0.3984375,0.155
0.40625,0.195
0.4140625,0.235
0.421875,0.275
0.4296875,0.325
0.4375,0.365
0.4453125,0.415
0.453125,0.425
0.4609375,0.375
0.46875,0.325
0.4765625,0.235
0.484375,0.165
0.4921875,0.125
0.5,0.095
0.5078125,0.055
0.515625,0.065
0.5234375,0.045
0.53125,0.065
0.5390625,0.065
0.546875,0.065
0.5546875,0.085
0.5625,0.065
0.5703125,0.085
0.578125,0.145
0.5859375,0.155
0.59375,0.165
0.6015625,0.215
0.609375,0.255
0.6171875,0.305
0.625,0.325
0.6328125,0.325
0.640625,0.295
0.6484375,0.245
0.65625,0.215
0.6640625,0.165
0.671875,0.095
0.6796875,0.095
0.6875,0.065
0.6953125,0.065
0.703125,0.065
0.7109375,-0.125
0.71875,-0.245
0.7265625,-0.025
0.734375,0.525
0.7421875,0.865
0.75,0.635
0.7578125,0.225
0.765625,0.025
0.7734375,0.005
0.78125,0.055
0.7890625,0.105
0.796875,0.115
0.8046875,0.135
0.8125,0.145
0.8203125,0.155
0.828125,0.165
0.8359375,0.165
0.84375,0.185
0.8515625,0.225
0.859375,0.245
0.8671875,0.265
0.875,0.285
0.8828125,0.295
0.890625,0.325
0.8984375,0.345
0.90625,0.395
0.9140625,0.435
0.921875,0.475
0.9296875,0.525
0.9375,0.575
0.9453125,0.615
0.953125,0.655
0.9609375,0.685
0.96875,0.715
0.9765625,0.705
0.984375,0.655
0.9921875,0.595
1,0.535
1.0078125,0.475
1.015625,0.415
1.0234375,0.375
1.03125,0.365
1.0390625,0.365
1.046875,0.345
1.0546875,0.355
1.0625,0.345
1.0703125,0.345
1.078125,0.335
1.0859375,0.335
1.09375,0.365
1.1015625,0.415
1.109375,0.415
1.1171875,0.455
1.125,0.495
1.1328125,0.555
1.140625,0.555
1.1484375,0.565
1.15625,0.555
1.1640625,0.485
1.171875,0.455
1.1796875,0.395
1.1875,0.315
1.1953125,0.255
1.203125,0.275
1.2109375,0.265
1.21875,0.255
1.2265625,0.035
1.234375,-0.115
1.2421875,0.165
1.25,0.825
1.2578125,1.205
1.265625,0.885
1.2734375,0.375
1.28125,0.135
1.2890625,0.075
1.296875,0.135
1.3046875,0.245
1.3125,0.245
1.3203125,0.245
1.328125,0.245
1.3359375,0.235
1.34375,0.245
1.3515625,0.255
1.359375,0.245
1.3671875,0.295
1.375,0.275
1.3828125,0.295
1.390625,0.305
1.3984375,0.325
1.40625,0.345
1.4140625,0.375
1.421875,0.425
1.4296875,0.465
1.4375,0.495
1.4453125,0.515
1.453125,0.565
1.4609375,0.615
1.46875,0.655
1.4765625,0.675
1.484375,0.685
1.4921875,0.635
1.5,0.555
1.5078125,0.495
1.515625,0.435
1.5234375,0.355
1.53125,0.315
1.5390625,0.285
1.546875,0.275
1.5546875,0.265
1.5625,0.255
1.5703125,0.245
1.578125,0.235
1.5859375,0.235
1.59375,0.245
1.6015625,0.255
1.609375,0.265
1.6171875,0.295
1.625,0.305
1.6328125,0.335
1.640625,0.365
1.6484375,0.415
1.65625,0.425
1.6640625,0.425
1.671875,0.385
1.6796875,0.365
1.6875,0.315
1.6953125,0.255
1.703125,0.215
1.7109375,0.145
1.71875,0.125
1.7265625,0.155
1.734375,0.155
1.7421875,0.035
1.75,-0.205
1.7578125,-0.085
1.765625,0.435
1.7734375,0.965
1.78125,0.875
1.7890625,0.385
1.796875,0.045
1.8046875,0.005
1.8125,0.015
1.8203125,0.085
1.828125,0.085
1.8359375,0.085
1.84375,0.095
1.8515625,0.115
1.859375,0.115
1.8671875,0.125
1.875,0.115
1.8828125,0.135
1.890625,0.135
1.8984375,0.145
1.90625,0.155
1.9140625,0.165
1.921875,0.185
1.9296875,0.195
1.9375,0.225
1.9453125,0.275
1.953125,0.335
1.9609375,0.335
1.96875,0.385
1.9765625,0.425
1.984375,0.465
1.9921875,0.485
2,0.505
2.0078125,0.495
2.015625,0.435
2.0234375,0.365
2.03125,0.295
2.0390625,0.235
2.046875,0.185
2.0546875,0.155
2.0625,0.135
2.0703125,0.125
2.078125,0.105
2.0859375,0.095
2.09375,0.085
2.1015625,0.095
2.109375,0.105
2.1171875,0.115
2.125,0.155
2.1328125,0.185
2.140625,0.185
2.1484375,0.185
2.15625,0.245
2.1640625,0.295
2.171875,0.295
2.1796875,0.285
2.1875,0.255
2.1953125,0.205
2.203125,0.155
2.2109375,0.075
2.21875,0.005
2.2265625,-0.035
2.234375,-0.025
2.2421875,-0.005
2.25,-0.085
2.2578125,-0.355
2.265625,-0.405
2.2734375,0.005
2.28125,0.695
2.2890625,0.805
2.296875,0.205
2.3046875,-0.195
2.3125,-0.215
2.3203125,-0.125
2.328125,-0.065
2.3359375,-0.075
2.34375,-0.085
2.3515625,-0.085
2.359375,-0.085
2.3671875,-0.075
2.375,-0.095
2.3828125,-0.085
2.390625,-0.115
2.3984375,-0.115
2.40625,-0.075
2.4140625,-0.045
2.421875,-0.035
2.4296875,0.005
2.4375,0.045
2.4453125,0.045
2.453125,0.085
2.4609375,0.105
2.46875,0.155
2.4765625,0.195
2.484375,0.245
2.4921875,0.265
2.5,0.315
2.5078125,0.325
2.515625,0.315
2.5234375,0.285
2.53125,0.215
2.5390625,0.135
2.546875,0.075
2.5546875,0.035
2.5625,-0.005
2.5703125,-0.025
2.578125,-0.045
2.5859375,-0.055
2.59375,-0.075
2.6015625,-0.075
2.609375,-0.075
2.6171875,-0.075
2.625,-0.065
2.6328125,-0.035
2.640625,-0.035
2.6484375,-0.035
2.65625,0.005
2.6640625,0.055
2.671875,0.075
2.6796875,0.095
2.6875,0.095
2.6953125,0.045
2.703125,0.005
2.7109375,-0.055
2.71875,-0.095
2.7265625,-0.155
2.734375,-0.195
2.7421875,-0.185
2.75,-0.185
2.7578125,-0.195
2.765625,-0.365
2.7734375,-0.445
2.78125,-0.205
2.7890625,0.245
2.796875,0.485
2.8046875,0.255
2.8125,-0.105
2.8203125,-0.295
2.828125,-0.335
2.8359375,-0.315
2.84375,-0.235
2.8515625,-0.175
2.859375,-0.175
2.8671875,-0.165
2.875,-0.165
2.8828125,-0.155
2.890625,-0.165
2.8984375,-0.175
2.90625,-0.165
2.9140625,-0.155
2.921875,-0.155
2.9296875,-0.145
2.9375,-0.125
2.9453125,-0.125
2.953125,-0.095
2.9609375,-0.085
2.96875,-0.055
2.9765625,-0.025
2.984375,-0.005
2.9921875,0.045
3,0.075
3.0078125,0.085
3.015625,0.115
3.0234375,0.105
3.03125,0.105
3.0390625,0.065
3.046875,-0.005
3.0546875,-0.045
3.0625,-0.125
3.0703125,-0.145
3.078125,-0.185
3.0859375,-0.215
3.09375,-0.225
3.1015625,-0.215
3.109375,-0.235
3.1171875,-0.225
3.125,-0.225
3.1328125,-0.205
3.140625,-0.195
3.1484375,-0.185
3.15625,-0.165
3.1640625,-0.135
3.171875,-0.085
3.1796875,-0.065
3.1875,-0.055
3.1953125,-0.035
3.203125,-0.075
3.2109375,-0.135
3.21875,-0.155
3.2265625,-0.255
3.234375,-0.305
3.2421875,-0.335
3.25,-0.355
3.2578125,-0.345
3.265625,-0.365
3.2734375,-0.635
3.28125,-0.745
3.2890625,-0.375
3.296875,0.285
3.3046875,0.625
3.3125,0.205
3.3203125,-0.255
3.328125,-0.545
3.3359375,-0.615
3.34375,-0.555
3.3515625,-0.405
3.359375,-0.365
3.3671875,-0.335
3.375,-0.325
3.3828125,-0.355
3.390625,-0.335
3.3984375,-0.335
3.40625,-0.315
3.4140625,-0.305
3.421875,-0.335
3.4296875,-0.285
3.4375,-0.255
3.4453125,-0.245
3.453125,-0.215
3.4609375,-0.205
3.46875,-0.155
3.4765625,-0.085
3.484375,-0.055
3.4921875,-0.015
3.5,0.015
3.5078125,0.065
3.515625,0.065
3.5234375,0.075
3.53125,0.085
3.5390625,0.075
3.546875,0.015
3.5546875,-0.025
3.5625,-0.095
3.5703125,-0.135
3.578125,-0.165
3.5859375,-0.185
3.59375,-0.185
3.6015625,-0.185
3.609375,-0.215
3.6171875,-0.185
3.625,-0.185
3.6328125,-0.175
3.640625,-0.165
3.6484375,-0.165
3.65625,-0.125
3.6640625,-0.085
3.671875,-0.095
3.6796875,-0.035
3.6875,-0.025
3.6953125,-0.015
3.703125,-0.005
3.7109375,-0.055
3.71875,-0.075
3.7265625,-0.115
3.734375,-0.165
3.7421875,-0.215
3.75,-0.245
3.7578125,-0.255
3.765625,-0.255
3.7734375,-0.325
3.78125,-0.565
3.7890625,-0.635
3.796875,-0.315
3.8046875,0.305
3.8125,0.495
3.8203125,0.065
3.828125,-0.335
3.8359375,-0.485
3.84375,-0.455
3.8515625,-0.385
3.859375,-0.345
3.8671875,-0.315
3.875,-0.305
3.8828125,-0.315
3.890625,-0.305
3.8984375,-0.305
3.90625,-0.315
3.9140625,-0.295
3.921875,-0.285
3.9296875,-0.245
3.9375,-0.245
3.9453125,-0.235
3.953125,-0.215
3.9609375,-0.195
3.96875,-0.165
3.9765625,-0.145
3.984375,-0.115
3.9921875,-0.065
4,-0.035
4.0078125,0.025
4.015625,0.045
4.0234375,0.035
4.03125,0.065
4.0390625,0.065
4.046875,0.035
4.0546875,-0.005
4.0625,-0.065
4.0703125,-0.115
4.078125,-0.175
4.0859375,-0.205
4.09375,-0.235
4.1015625,-0.235
4.109375,-0.255
4.1171875,-0.245
4.125,-0.255
4.1328125,-0.245
4.140625,-0.235
4.1484375,-0.245
4.15625,-0.215
4.1640625,-0.165
4.171875,-0.155
4.1796875,-0.115
4.1875,-0.065
4.1953125,-0.085
4.203125,-0.065
4.2109375,-0.095
4.21875,-0.105
4.2265625,-0.145
4.234375,-0.215
4.2421875,-0.275
4.25,-0.315
4.2578125,-0.345
4.265625,-0.355
4.2734375,-0.355
4.28125,-0.445
4.2890625,-0.715
4.296875,-0.705
4.3046875,-0.145
4.3125,0.515
4.3203125,0.485
4.328125,-0.025
4.3359375,-0.455
4.34375,-0.625
4.3515625,-0.615
4.359375,-0.495
4.3671875,-0.405
4.375,-0.395
4.3828125,-0.405
4.390625,-0.385
4.3984375,-0.385
4.40625,-0.385
4.4140625,-0.375
4.421875,-0.365
4.4296875,-0.325
4.4375,-0.325
4.4453125,-0.325
4.453125,-0.315
4.4609375,-0.295
4.46875,-0.265
4.4765625,-0.225
4.484375,-0.175
4.4921875,-0.105
4.5,-0.055
4.5078125,-0.025
4.515625,-0.005
4.5234375,0.005
4.53125,0.005
4.5390625,0.015
4.546875,-0.005
4.5546875,-0.045
4.5625,-0.085
4.5703125,-0.145
4.578125,-0.205
4.5859375,-0.285
4.59375,-0.275
4.6015625,-0.275
4.609375,-0.305
4.6171875,-0.315
4.625,-0.305
4.6328125,-0.335
4.640625,-0.325
4.6484375,-0.325
4.65625,-0.275
4.6640625,-0.245
4.671875,-0.245
4.6796875,-0.195
4.6875,-0.135
4.6953125,-0.105
4.703125,-0.115
4.7109375,-0.115
4.71875,-0.125
4.7265625,-0.165
4.734375,-0.175
4.7421875,-0.245
4.75,-0.335
4.7578125,-0.405
4.765625,-0.405
4.7734375,-0.415
4.78125,-0.375
4.7890625,-0.575
4.796875,-0.895
4.8046875,-0.685
4.8125,0.095
4.8203125,0.845
4.828125,0.465
4.8359375,-0.185
4.84375,-0.575
4.8515625,-0.645
4.859375,-0.645
4.8671875,-0.495
4.875,-0.435
4.8828125,-0.435
4.890625,-0.425
4.8984375,-0.445
4.90625,-0.435
4.9140625,-0.425
4.921875,-0.385
4.9296875,-0.345
4.9375,-0.345
4.9453125,-0.335
4.953125,-0.305
4.9609375,-0.315
4.96875,-0.295
4.9765625,-0.255
4.984375,-0.195
4.9921875,-0.155
5,-0.105
5.0078125,-0.045
5.015625,-0.005
5.0234375,-0.015
5.03125,0.015
5.0390625,0.085
5.046875,0.085
5.0546875,0.035
5.0625,-0.025
5.0703125,-0.085
5.078125,-0.145
5.0859375,-0.205
5.09375,-0.235
5.1015625,-0.245
5.109375,-0.275
5.1171875,-0.275
5.125,-0.315
5.1328125,-0.295
5.140625,-0.265
5.1484375,-0.265
5.15625,-0.245
5.1640625,-0.215
5.171875,-0.195
5.1796875,-0.165
5.1875,-0.155
5.1953125,-0.105
5.203125,-0.065
5.2109375,-0.085
5.21875,-0.045
5.2265625,-0.065
5.234375,-0.085
5.2421875,-0.115
5.25,-0.205
5.2578125,-0.275
5.265625,-0.305
5.2734375,-0.325
5.28125,-0.305
5.2890625,-0.325
5.296875,-0.585
5.3046875,-0.775
5.3125,-0.485
5.3203125,0.265
5.328125,0.845
5.3359375,0.455
5.34375,-0.155
5.3515625,-0.475
5.359375,-0.525
5.3671875,-0.445
5.375,-0.375
5.3828125,-0.345
5.390625,-0.345
5.3984375,-0.335
5.40625,-0.315
5.4140625,-0.325
5.421875,-0.295
5.4296875,-0.275
5.4375,-0.245
5.4453125,-0.245
5.453125,-0.265
5.4609375,-0.265
5.46875,-0.215
5.4765625,-0.165
5.484375,-0.155
5.4921875,-0.135
5.5,-0.085
5.5078125,-0.015
5.515625,-0.005
5.5234375,0.045
5.53125,0.095
5.5390625,0.135
5.546875,0.145
5.5546875,0.155
5.5625,0.135
5.5703125,0.105
5.578125,0.025
5.5859375,-0.045
5.59375,-0.105
5.6015625,-0.155
5.609375,-0.165
5.6171875,-0.145
5.625,-0.165
5.6328125,-0.165
5.640625,-0.175
5.6484375,-0.195
5.65625,-0.185
5.6640625,-0.165
5.671875,-0.145
5.6796875,-0.115
5.6875,-0.075
5.6953125,-0.085
5.703125,-0.065
5.7109375,-0.025
5.71875,0.055
5.7265625,0.055
5.734375,0.045
5.7421875,0.045
5.75,0.025
5.7578125,0.005
5.765625,-0.085
5.7734375,-0.165
5.78125,-0.205
5.7890625,-0.225
5.796875,-0.235
5.8046875,-0.225
5.8125,-0.315
5.8203125,-0.655
5.828125,-0.685
5.8359375,-0.045
5.84375,0.795
5.8515625,0.815
5.859375,0.095
5.8671875,-0.345
5.875,-0.405
5.8828125,-0.345
5.890625,-0.255
5.8984375,-0.245
5.90625,-0.235
5.9140625,-0.225
5.921875,-0.235
5.9296875,-0.195
5.9375,-0.205
5.9453125,-0.195
5.953125,-0.175
5.9609375,-0.215
5.96875,-0.165
5.9765625,-0.135
5.984375,-0.145
5.9921875,-0.105
6,-0.075
6.0078125,-0.055
6.015625,-0.015
6.0234375,0.035
6.03125,0.105
6.0390625,0.165
6.046875,0.195
6.0546875,0.235
6.0625,0.235
6.0703125,0.245
6.078125,0.215
6.0859375,0.145
6.09375,0.085
6.1015625,0.015
6.109375,-0.065
6.1171875,-0.045
6.125,-0.065
6.1328125,-0.085
6.140625,-0.105
6.1484375,-0.135
6.15625,-0.145
6.1640625,-0.115
6.171875,-0.115
6.1796875,-0.115
6.1875,-0.105
6.1953125,-0.105
6.203125,-0.125
6.2109375,-0.155
6.21875,-0.115
6.2265625,-0.065
6.234375,-0.055
6.2421875,-0.015
6.25,0.005
6.2578125,0.045
6.265625,0.095
6.2734375,0.085
6.28125,0.085
6.2890625,0.075
6.296875,0.005
6.3046875,-0.005
6.3125,-0.105
6.3203125,-0.135
6.328125,-0.185
6.3359375,-0.215
6.34375,-0.215
6.3515625,-0.175
6.359375,-0.325
6.3671875,-0.645
6.375,-0.645
6.3828125,-0.005
6.390625,0.795
6.3984375,0.785
6.40625,0.055
6.4140625,-0.365
6.421875,-0.395
6.4296875,-0.315
6.4375,-0.265
6.4453125,-0.235
6.453125,-0.215
6.4609375,-0.235
6.46875,-0.215
6.4765625,-0.215
6.484375,-0.205
6.4921875,-0.195
6.5,-0.175
6.5078125,-0.145
6.515625,-0.135
6.5234375,-0.135
6.53125,-0.125
6.5390625,-0.115
6.546875,-0.085
6.5546875,-0.035
6.5625,0.005
6.5703125,0.035
6.578125,0.085
6.5859375,0.115
6.59375,0.165
6.6015625,0.195
6.609375,0.205
6.6171875,0.235
6.625,0.195
6.6328125,0.165
6.640625,0.085
6.6484375,0.005
6.65625,-0.055
6.6640625,-0.075
6.671875,-0.105
6.6796875,-0.105
6.6875,-0.125
6.6953125,-0.145
6.703125,-0.145
6.7109375,-0.175
6.71875,-0.175
6.7265625,-0.165
6.734375,-0.155
6.7421875,-0.155
6.75,-0.155
6.7578125,-0.155
6.765625,-0.155
6.7734375,-0.175
6.78125,-0.165
6.7890625,-0.175
6.796875,-0.185
6.8046875,-0.165
6.8125,-0.175
6.8203125,-0.175
6.828125,-0.185
6.8359375,-0.205
6.84375,-0.195
6.8515625,-0.145
6.859375,-0.115
6.8671875,-0.065
6.875,-0.025
6.8828125,0.025
6.890625,-0.005
6.8984375,-0.015
6.90625,-0.045
6.9140625,-0.075
6.921875,-0.135
6.9296875,-0.205
6.9375,-0.235
6.9453125,-0.265
6.953125,-0.295
6.9609375,-0.335
6.96875,-0.315
6.9765625,-0.385
6.984375,-0.615
6.9921875,-0.635
7,-0.125
7.0078125,0.575
7.015625,0.725
7.0234375,0.175
7.03125,-0.315
7.0390625,-0.515
7.046875,-0.515
7.0546875,-0.445
7.0625,-0.375
7.0703125,-0.345
7.078125,-0.355
7.0859375,-0.345
7.09375,-0.355
7.1015625,-0.355
7.109375,-0.355
7.1171875,-0.325
7.125,-0.305
7.1328125,-0.295
7.140625,-0.295
7.1484375,-0.295
7.15625,-0.265
7.1640625,-0.225
7.171875,-0.195
7.1796875,-0.175
7.1875,-0.115
7.1953125,-0.065
7.203125,-0.035
7.2109375,-0.025
7.21875,0.005
7.2265625,0.045
7.234375,0.045
7.2421875,0.055
7.25,0.045
7.2578125,0.005
7.265625,-0.065
7.2734375,-0.145
7.28125,-0.175
7.2890625,-0.205
7.296875,-0.255
7.3046875,-0.275
7.3125,-0.275
7.3203125,-0.295
7.328125,-0.285
7.3359375,-0.305
7.34375,-0.295
7.3515625,-0.295
7.359375,-0.305
7.3671875,-0.295
7.375,-0.265
7.3828125,-0.265
7.390625,-0.285
7.3984375,-0.285
7.40625,-0.285
7.4140625,-0.275
7.421875,-0.275
7.4296875,-0.275
7.4375,-0.275
7.4453125,-0.255
7.453125,-0.265
7.4609375,-0.285
7.46875,-0.295
7.4765625,-0.295
7.484375,-0.295
7.4921875,-0.245
7.5,-0.215
7.5078125,-0.185
7.515625,-0.165
7.5234375,-0.165
7.53125,-0.075
7.5390625,-0.025
7.546875,-0.045
7.5546875,-0.065
7.5625,-0.105
7.5703125,-0.115
7.578125,-0.165
7.5859375,-0.245
7.59375,-0.305
7.6015625,-0.315
7.609375,-0.315
7.6171875,-0.245
7.625,-0.355
7.6328125,-0.665
7.640625,-0.615
7.6484375,0.055
7.65625,0.905
7.6640625,0.915
7.671875,0.205
7.6796875,-0.315
7.6875,-0.475
7.6953125,-0.455
7.703125,-0.335
7.7109375,-0.285
7.71875,-0.245
7.7265625,-0.235
7.734375,-0.225
7.7421875,-0.195
7.75,-0.205
7.7578125,-0.205
7.765625,-0.185
7.7734375,-0.185
7.78125,-0.145
7.7890625,-0.105
7.796875,-0.105
7.8046875,-0.055
7.8125,-0.025
7.8203125,-0.005
7.828125,0.045
7.8359375,0.085
7.84375,0.135
7.8515625,0.205
7.859375,0.245
7.8671875,0.295
7.875,0.335
7.8828125,0.375
7.890625,0.355
7.8984375,0.325
7.90625,0.315
7.9140625,0.275
7.921875,0.225
7.9296875,0.165
7.9375,0.135
7.9453125,0.115
7.953125,0.095
7.9609375,0.065
7.96875,0.065
7.9765625,0.075
7.984375,0.085
7.9921875,0.105
8,0.115
8.0078125,0.105
8.015625,0.125
8.0234375,0.125
8.03125,0.125
8.0390625,0.145
8.046875,0.155
8.0546875,0.165
8.0625,0.175
8.0703125,0.185
8.078125,0.175
8.0859375,0.195
8.09375,0.195
8.1015625,0.195
8.109375,0.195
8.1171875,0.205
8.125,0.205
8.1328125,0.215
8.140625,0.235
8.1484375,0.215
8.15625,0.225
8.1640625,0.245
8.171875,0.245
8.1796875,0.255
8.1875,0.285
8.1953125,0.325
8.203125,0.375
8.2109375,0.395
8.21875,0.455
8.2265625,0.495
8.234375,0.495
8.2421875,0.485
8.25,0.465
8.2578125,0.415
8.265625,0.365
8.2734375,0.305
8.28125,0.265
8.2890625,0.245
8.296875,0.255
8.3046875,0.295
8.3125,0.205
8.3203125,-0.005
8.328125,-0.015
8.3359375,0.415
8.34375,1.155
8.3515625,1.505
8.359375,0.915
8.3671875,0.335
8.375,0.105
8.3828125,0.175
8.390625,0.245
8.3984375,0.295
8.40625,0.305
8.4140625,0.315
8.421875,0.315
8.4296875,0.325
8.4375,0.345
8.4453125,0.355
8.453125,0.345
8.4609375,0.345
8.46875,0.395
8.4765625,0.395
8.484375,0.385
8.4921875,0.435
8.5,0.465
8.5078125,0.485
8.515625,0.485
8.5234375,0.515
8.53125,0.565
8.5390625,0.625
8.546875,0.655
8.5546875,0.735
8.5625,0.765
8.5703125,0.795
8.578125,0.805
8.5859375,0.795
8.59375,0.785
8.6015625,0.735
8.609375,0.685
8.6171875,0.635
8.625,0.585
8.6328125,0.535
8.640625,0.475
8.6484375,0.465
8.65625,0.465
8.6640625,0.455
8.671875,0.445
8.6796875,0.445
8.6875,0.435
8.6953125,0.445
8.703125,0.425
8.7109375,0.415
8.71875,0.405
8.7265625,0.405
8.734375,0.425
8.7421875,0.435
8.75,0.435
8.7578125,0.405
8.765625,0.395
8.7734375,0.395
8.78125,0.415
8.7890625,0.425
8.796875,0.415
8.8046875,0.415
8.8125,0.405
8.8203125,0.395
8.828125,0.385
8.8359375,0.385
8.84375,0.385
8.8515625,0.375
8.859375,0.355
8.8671875,0.385
8.875,0.375
8.8828125,0.385
8.890625,0.385
8.8984375,0.345
8.90625,0.365
8.9140625,0.415
8.921875,0.435
8.9296875,0.475
8.9375,0.525
8.9453125,0.555
8.953125,0.535
8.9609375,0.525
8.96875,0.475
8.9765625,0.465
8.984375,0.405
8.9921875,0.345
9,0.285
9.0078125,0.265
9.015625,0.265
9.0234375,0.245
9.03125,0.225
9.0390625,0.015
9.046875,-0.095
9.0546875,0.215
9.0625,0.905
9.0703125,1.315
9.078125,0.795
9.0859375,0.235
9.09375,-0.035
9.1015625,0.055
9.109375,0.135
9.1171875,0.195
9.125,0.185
9.1328125,0.195
9.140625,0.205
9.1484375,0.185
9.15625,0.195
9.1640625,0.195
9.171875,0.215
9.1796875,0.215
9.1875,0.215
9.1953125,0.215
9.203125,0.225
9.2109375,0.215
9.21875,0.245
9.2265625,0.265
9.234375,0.305
9.2421875,0.335
9.25,0.365
9.2578125,0.405
9.265625,0.445
9.2734375,0.475
9.28125,0.455
9.2890625,0.535
9.296875,0.545
9.3046875,0.545
9.3125,0.525
9.3203125,0.485
9.328125,0.405
9.3359375,0.315
9.34375,0.255
9.3515625,0.225
9.359375,0.175
9.3671875,0.155
9.375,0.155
9.3828125,0.155
9.390625,0.135
9.3984375,0.115
9.40625,0.105
9.4140625,0.105
9.421875,0.105
9.4296875,0.115
9.4375,0.095
9.4453125,0.085
9.453125,0.095
9.4609375,0.065
9.46875,0.055
9.4765625,0.055
9.484375,0.075
9.4921875,0.085
9.5,0.065
9.5078125,0.055
9.515625,0.045
9.5234375,0.025
9.53125,0.025
9.5390625,0.025
9.546875,0.015
9.5546875,0.025
9.5625,0.015
9.5703125,0.005
9.578125,0.005
9.5859375,0.005
9.59375,0.015
9.6015625,0.035
9.609375,0.045
9.6171875,0.085
9.625,0.115
9.6328125,0.165
9.640625,0.185
9.6484375,0.145
9.65625,0.095
9.6640625,0.055
9.671875,-0.005
9.6796875,-0.035
9.6875,-0.095
9.6953125,-0.115
9.703125,-0.005
9.7109375,0.295
9.71875,0.225
9.7265625,-0.285
9.734375,-0.495
9.7421875,-0.205
9.75,0.465
9.7578125,0.885
9.765625,0.485
9.7734375,-0.075
9.78125,-0.365
9.7890625,-0.375
9.796875,-0.355
9.8046875,-0.245
9.8125,-0.225
9.8203125,-0.225
9.828125,-0.245
9.8359375,-0.255
9.84375,-0.245
9.8515625,-0.205
9.859375,-0.185
9.8671875,-0.185
9.875,-0.215
9.8828125,-0.205
9.890625,-0.175
9.8984375,-0.165
9.90625,-0.155
9.9140625,-0.115
9.921875,-0.105
9.9296875,-0.055
9.9375,-0.035
9.9453125,0.015
9.953125,0.075
9.9609375,0.085
9.96875,0.105
9.9765625,0.135
9.984375,0.155
9.9921875,0.175
10,0.145
10.0078125,-0.025
10.015625,-0.105
10.0234375,-0.275
10.03125,0.025
10.0390625,-0.125
10.046875,-0.175
10.0546875,-0.185
10.0625,-0.235
10.0703125,-0.245
10.078125,-0.245
10.0859375,-0.255
10.09375,-0.255
10.1015625,-0.255
10.109375,-0.265
10.1171875,-0.245
10.125,-0.245
10.1328125,-0.255
10.140625,-0.255
10.1484375,-0.265
10.15625,-0.245
10.1640625,-0.225
10.171875,-0.235
10.1796875,-0.225
10.1875,-0.245
10.1953125,-0.255
10.203125,-0.245
10.2109375,-0.275
10.21875,-0.255
10.2265625,-0.255
10.234375,-0.215
10.2421875,-0.195
10.25,-0.165
10.2578125,-0.145
10.265625,-0.065
10.2734375,-0.075
10.28125,-0.055
10.2890625,-0.075
10.296875,-0.125
10.3046875,-0.145
10.3125,-0.235
10.3203125,-0.305
10.328125,-0.345
10.3359375,-0.365
10.34375,-0.385
10.3515625,-0.365
10.359375,-0.535
10.3671875,-0.735
10.375,-0.535
10.3828125,0.185
10.390625,0.795
10.3984375,0.365
10.40625,-0.275
10.4140625,-0.575
10.421875,-0.525
10.4296875,-0.425
10.4375,-0.375
10.4453125,-0.385
10.453125,-0.395
10.4609375,-0.395
10.46875,-0.365
10.4765625,-0.345
10.484375,-0.335
10.4921875,-0.345
10.5,-0.345
10.5078125,-0.315
10.515625,-0.315
10.5234375,-0.285
10.53125,-0.285
10.5390625,-0.265
10.546875,-0.245
10.5546875,-0.195
10.5625,-0.175
10.5703125,-0.135
10.578125,-0.095
10.5859375,-0.035
10.59375,-0.005
10.6015625,0.025
10.609375,0.055
10.6171875,0.075
10.625,0.055
10.6328125,0.025
10.640625,-0.035
10.6484375,-0.095
10.65625,-0.165
10.6640625,-0.215
10.671875,-0.235
10.6796875,-0.235
10.6875,-0.275
10.6953125,-0.275
10.703125,-0.295
10.7109375,-0.305
10.71875,-0.305
10.7265625,-0.295
10.734375,-0.285
10.7421875,-0.295
10.75,-0.275
10.7578125,-0.285
10.765625,-0.295
10.7734375,-0.325
10.78125,-0.315
10.7890625,-0.305
10.796875,-0.335
10.8046875,-0.325
10.8125,-0.305
10.8203125,-0.285
10.828125,-0.255
10.8359375,-0.265
10.84375,-0.245
10.8515625,-0.215
10.859375,-0.175
10.8671875,-0.065
10.875,-0.085
10.8828125,-0.085
10.890625,-0.135
10.8984375,-0.195
10.90625,-0.235
10.9140625,-0.295
10.921875,-0.345
10.9296875,-0.375
10.9375,-0.405
10.9453125,-0.425
10.953125,-0.395
10.9609375,-0.455
10.96875,-0.715
10.9765625,-0.785
10.984375,-0.365
10.9921875,0.345
11,0.655
11.0078125,0.045
11.015625,-0.495
11.0234375,-0.615
11.03125,-0.555
11.0390625,-0.465
11.046875,-0.435
11.0546875,-0.415
11.0625,-0.405
11.0703125,-0.405
11.078125,-0.415
11.0859375,-0.395
11.09375,-0.375
11.1015625,-0.375
11.109375,-0.365
11.1171875,-0.365
11.125,-0.335
11.1328125,-0.335
11.140625,-0.335
11.1484375,-0.305
11.15625,-0.265
11.1640625,-0.235
11.171875,-0.175
11.1796875,-0.125
11.1875,-0.095
11.1953125,-0.055
11.203125,0.005
11.2109375,0.015
11.21875,0.045
11.2265625,0.045
11.234375,0.025
11.2421875,-0.005
11.25,-0.065
11.2578125,-0.135
11.265625,-0.205
11.2734375,-0.255
11.28125,-0.285
11.2890625,-0.295
11.296875,-0.315
11.3046875,-0.315
11.3125,-0.325
11.3203125,-0.315
11.328125,-0.305
11.3359375,-0.305
11.34375,-0.325
11.3515625,-0.325
11.359375,-0.335
11.3671875,-0.305
11.375,-0.305
11.3828125,-0.295
11.390625,-0.305
11.3984375,-0.315
11.40625,-0.305
11.4140625,-0.275
11.421875,-0.245
11.4296875,-0.205
11.4375,-0.185
11.4453125,-0.105
11.453125,-0.105
11.4609375,-0.115
11.46875,-0.125
11.4765625,-0.185
11.484375,-0.235
11.4921875,-0.265
11.5,-0.345
11.5078125,-0.385
11.515625,-0.405
11.5234375,-0.415
11.53125,-0.425
11.5390625,-0.465
11.546875,-0.725
11.5546875,-0.845
11.5625,-0.515
11.5703125,0.175
11.578125,0.545
11.5859375,0.115
11.59375,-0.405
11.6015625,-0.605
11.609375,-0.585
11.6171875,-0.495
11.625,-0.455
11.6328125,-0.425
11.640625,-0.415
11.6484375,-0.415
11.65625,-0.415
11.6640625,-0.395
11.671875,-0.375
11.6796875,-0.365
11.6875,-0.395
11.6953125,-0.375
11.703125,-0.365
11.7109375,-0.345
11.71875,-0.325
11.7265625,-0.295
11.734375,-0.295
11.7421875,-0.275
11.75,-0.215
11.7578125,-0.165
11.765625,-0.135
11.7734375,-0.105
11.78125,-0.055
11.7890625,-0.035
11.796875,-0.025
11.8046875,-0.005
11.8125,-0.015
11.8203125,-0.045
11.828125,-0.095
11.8359375,-0.185
11.84375,-0.235
11.8515625,-0.255
11.859375,-0.305
11.8671875,-0.335
11.875,-0.365
11.8828125,-0.325
11.890625,-0.355
11.8984375,-0.375
11.90625,-0.355
11.9140625,-0.355
11.921875,-0.375
11.9296875,-0.355
11.9375,-0.355
11.9453125,-0.345
11.953125,-0.365
11.9609375,-0.365
11.96875,-0.325
11.9765625,-0.305
11.984375,-0.285
11.9921875,-0.255
12,-0.235
12.0078125,-0.185
12.015625,-0.125
12.0234375,-0.145
12.03125,-0.155
12.0390625,-0.175
12.046875,-0.215
12.0546875,-0.275
12.0625,-0.345
12.0703125,-0.385
12.078125,-0.405
12.0859375,-0.435
12.09375,-0.425
12.1015625,-0.425
12.109375,-0.645
12.1171875,-0.865
12.125,-0.675
12.1328125,0.035
12.140625,0.615
12.1484375,0.335
12.15625,-0.235
12.1640625,-0.535
12.171875,-0.595
12.1796875,-0.555
12.1875,-0.455
12.1953125,-0.415
12.203125,-0.415
12.2109375,-0.415
12.21875,-0.385
12.2265625,-0.375
12.234375,-0.375
12.2421875,-0.355
12.25,-0.355
12.2578125,-0.335
12.265625,-0.315
12.2734375,-0.335
12.28125,-0.295
12.2890625,-0.255
12.296875,-0.245
12.3046875,-0.195
12.3125,-0.155
12.3203125,-0.125
12.328125,-0.065
12.3359375,-0.035
12.34375,0.005
12.3515625,0.055
12.359375,0.085
12.3671875,0.125
12.375,0.115
12.3828125,0.095
12.390625,0.055
12.3984375,-0.015
12.40625,-0.055
12.4140625,-0.105
12.421875,-0.145
12.4296875,-0.165
12.4375,-0.175
12.4453125,-0.195
12.453125,-0.195
12.4609375,-0.205
12.46875,-0.185
12.4765625,-0.175
12.484375,-0.175
12.4921875,-0.175
12.5,-0.165
12.5078125,-0.145
12.515625,-0.145
12.5234375,-0.145
12.53125,-0.125
12.5390625,-0.075
12.546875,-0.055
12.5546875,-0.015
12.5625,0.015
12.5703125,0.065
12.578125,0.085
12.5859375,0.085
12.59375,0.075
12.6015625,0.045
12.609375,-0.015
12.6171875,-0.035
12.625,-0.085
12.6328125,-0.125
12.640625,-0.155
12.6484375,-0.155
12.65625,-0.135
12.6640625,-0.275
12.671875,-0.565
12.6796875,-0.475
12.6875,0.165
12.6953125,0.805
12.703125,0.715
12.7109375,0.035
12.71875,-0.305
12.7265625,-0.265
12.734375,-0.155
12.7421875,-0.075
12.75,-0.065
12.7578125,-0.085
12.765625,-0.065
12.7734375,-0.065
12.78125,-0.025
12.7890625,-0.015
12.796875,0.005
12.8046875,0.035
12.8125,0.065
12.8203125,0.065
12.828125,0.065
12.8359375,0.095
12.84375,0.135
12.8515625,0.175
12.859375,0.205
12.8671875,0.245
12.875,0.295
12.8828125,0.355
12.890625,0.395
12.8984375,0.435
12.90625,0.485
12.9140625,0.515
12.921875,0.535
12.9296875,0.565
12.9375,0.535
12.9453125,0.485
12.953125,0.425
12.9609375,0.365
12.96875,0.325
12.9765625,0.295
12.984375,0.275
12.9921875,0.275
13,0.255
13.0078125,0.265
13.015625,0.305
13.0234375,0.295
13.03125,0.295
13.0390625,0.315
13.046875,0.305
13.0546875,0.315
13.0625,0.305
13.0703125,0.325
13.078125,0.375
13.0859375,0.395
13.09375,0.415
13.1015625,0.465
13.109375,0.495
13.1171875,0.575
13.125,0.565
13.1328125,0.555
13.140625,0.545
13.1484375,0.515
13.15625,0.495
13.1640625,0.445
13.171875,0.375
13.1796875,0.325
13.1875,0.295
13.1953125,0.305
13.203125,0.315
13.2109375,0.305
13.21875,0.105
13.2265625,-0.135
13.234375,0.025
13.2421875,0.675
13.25,1.225
13.2578125,1.025
13.265625,0.405
13.2734375,0.105
13.28125,0.175
13.2890625,0.245
13.296875,0.305
13.3046875,0.345
13.3125,0.365
13.3203125,0.365
13.328125,0.365
13.3359375,0.365
13.34375,0.375
13.3515625,0.385
13.359375,0.395
13.3671875,0.435
13.375,0.415
13.3828125,0.445
13.390625,0.465
13.3984375,0.465
13.40625,0.485
13.4140625,0.525
13.421875,0.545
13.4296875,0.585
13.4375,0.635
13.4453125,0.675
13.453125,0.735
13.4609375,0.745
13.46875,0.785
13.4765625,0.785
13.484375,0.755
13.4921875,0.725
13.5,0.665
13.5078125,0.595
13.515625,0.525
13.5234375,0.455
13.53125,0.435
13.5390625,0.425
13.546875,0.405
13.5546875,0.395
13.5625,0.385
13.5703125,0.385
13.578125,0.375
13.5859375,0.365
13.59375,0.365
13.6015625,0.375
13.609375,0.365
13.6171875,0.365
13.625,0.375
13.6328125,0.395
13.640625,0.405
13.6484375,0.415
13.65625,0.435
13.6640625,0.455
13.671875,0.445
13.6796875,0.455
13.6875,0.425
13.6953125,0.425
13.703125,0.385
13.7109375,0.335
13.71875,0.295
13.7265625,0.275
13.734375,0.265
13.7421875,0.255
13.75,0.265
13.7578125,0.185
13.765625,0.035
13.7734375,0.075
13.78125,0.405
13.7890625,0.725
13.796875,0.705
13.8046875,0.455
13.8125,0.215
13.8203125,0.135
13.828125,0.135
13.8359375,0.165
13.84375,0.205
13.8515625,0.225
13.859375,0.215
13.8671875,0.235
13.875,0.225
13.8828125,0.235
13.890625,0.215
13.8984375,0.225
13.90625,0.235
13.9140625,0.245
13.921875,0.255
13.9296875,0.245
13.9375,0.255
13.9453125,0.275
13.953125,0.305
13.9609375,0.295
13.96875,0.335
13.9765625,0.365
13.984375,0.395
13.9921875,0.435
14,0.455
14.0078125,0.475
14.015625,0.515
14.0234375,0.485
14.03125,0.455
14.0390625,0.405
14.046875,0.355
14.0546875,0.315
14.0625,0.255
14.0703125,0.225
14.078125,0.185
14.0859375,0.155
14.09375,0.135
14.1015625,0.145
14.109375,0.135
14.1171875,0.145
14.125,0.105
14.1328125,0.115
14.140625,0.105
14.1484375,0.115
14.15625,0.135
14.1640625,0.155
14.171875,0.155
14.1796875,0.185
14.1875,0.205
14.1953125,0.235
14.203125,0.305
14.2109375,0.285
14.21875,0.285
14.2265625,0.235
14.234375,0.205
14.2421875,0.195
14.25,0.125
14.2578125,0.045
14.265625,-0.005
14.2734375,-0.045
14.28125,-0.035
14.2890625,-0.045
14.296875,-0.125
14.3046875,-0.395
14.3125,-0.445
14.3203125,-0.005
14.328125,0.665
14.3359375,0.895
14.34375,0.405
14.3515625,-0.035
14.359375,-0.215
14.3671875,-0.175
14.375,-0.125
14.3828125,-0.075
14.390625,-0.085
14.3984375,-0.085
14.40625,-0.095
14.4140625,-0.075
14.421875,-0.075
14.4296875,-0.065
14.4375,-0.055
14.4453125,-0.035
14.453125,-0.015
14.4609375,-0.035
14.46875,-0.025
14.4765625,-0.015
14.484375,0.015
14.4921875,0.075
14.5,0.085
14.5078125,0.105
14.515625,0.145
14.5234375,0.165
14.53125,0.225
14.5390625,0.235
14.546875,0.235
14.5546875,0.285
14.5625,0.275
14.5703125,0.245
14.578125,0.175
14.5859375,0.125
14.59375,0.065
14.6015625,0.035
14.609375,-0.015
14.6171875,-0.035
14.625,-0.055
14.6328125,-0.055
14.640625,-0.065
14.6484375,-0.095
14.65625,-0.105
14.6640625,-0.105
14.671875,-0.085
14.6796875,-0.095
14.6875,-0.115
14.6953125,-0.115
14.703125,-0.075
14.7109375,-0.075
14.71875,-0.035
14.7265625,-0.015
14.734375,0.035
14.7421875,0.095
14.75,0.075
14.7578125,0.065
14.765625,0.005
14.7734375,-0.035
14.78125,-0.065
14.7890625,-0.135
14.796875,-0.195
14.8046875,-0.235
14.8125,-0.265
14.8203125,-0.265
14.828125,-0.255
14.8359375,-0.475
14.84375,-0.695
14.8515625,-0.585
14.859375,-0.085
14.8671875,0.495
14.875,0.485
14.8828125,-0.105
14.890625,-0.445
14.8984375,-0.445
14.90625,-0.365
14.9140625,-0.325
14.921875,-0.315
14.9296875,-0.285
14.9375,-0.305
14.9453125,-0.335
14.953125,-0.305
14.9609375,-0.305
14.96875,-0.275
14.9765625,-0.285
14.984375,-0.285
14.9921875,-0.265
15,-0.255
15.0078125,-0.255
15.015625,-0.235
15.0234375,-0.255
15.03125,-0.225
15.0390625,-0.165
15.046875,-0.125
15.0546875,-0.095
15.0625,-0.055
15.0703125,-0.025
15.078125,-0.015
15.0859375,-0.015
15.09375,0.035
15.1015625,0.055
15.109375,0.025
15.1171875,-0.045
15.125,-0.125
15.1328125,-0.185
15.140625,-0.245
15.1484375,-0.295
15.15625,-0.305
15.1640625,-0.315
15.171875,-0.325
15.1796875,-0.325
15.1875,-0.355
15.1953125,-0.345
15.203125,-0.325
15.2109375,-0.345
15.21875,-0.345
15.2265625,-0.335
15.234375,-0.315
15.2421875,-0.285
15.25,-0.285
15.2578125,-0.265
15.265625,-0.215
15.2734375,-0.165
15.28125,-0.145
15.2890625,-0.145
15.296875,-0.165
15.3046875,-0.225
15.3125,-0.285
15.3203125,-0.325
15.328125,-0.375
15.3359375,-0.485
15.34375,-0.485
15.3515625,-0.475
15.359375,-0.485
15.3671875,-0.455
15.375,-0.695
15.3828125,-0.895
15.390625,-0.665
15.3984375,-0.005
15.40625,0.425
15.4140625,0.135
15.421875,-0.345
15.4296875,-0.605
15.4375,-0.625
15.4453125,-0.625
15.453125,-0.525
15.4609375,-0.535
15.46875,-0.475
15.4765625,-0.475
15.484375,-0.505
15.4921875,-0.465
15.5,-0.465
15.5078125,-0.505
15.515625,-0.485
15.5234375,-0.465
15.53125,-0.465
15.5390625,-0.445
15.546875,-0.435
15.5546875,-0.395
15.5625,-0.385
15.5703125,-0.335
15.578125,-0.305
15.5859375,-0.285
15.59375,-0.245
15.6015625,-0.175
15.609375,-0.145
15.6171875,-0.115
15.625,-0.125
15.6328125,-0.105
15.640625,-0.135
15.6484375,-0.195
15.65625,-0.275
15.6640625,-0.315
15.671875,-0.355
15.6796875,-0.415
15.6875,-0.465
15.6953125,-0.495
15.703125,-0.485
15.7109375,-0.515
15.71875,-0.475
15.7265625,-0.475
15.734375,-0.505
15.7421875,-0.485
15.75,-0.465
15.7578125,-0.495
15.765625,-0.505
15.7734375,-0.475
15.78125,-0.445
15.7890625,-0.415
15.796875,-0.395
15.8046875,-0.345
15.8125,-0.275
15.8203125,-0.295
15.828125,-0.275
15.8359375,-0.335
15.84375,-0.355
15.8515625,-0.425
15.859375,-0.455
15.8671875,-0.505
15.875,-0.565
15.8828125,-0.565
15.890625,-0.565
15.8984375,-0.565
15.90625,-0.745
15.9140625,-1.005
15.921875,-0.835
15.9296875,-0.145
15.9375,0.495
15.9453125,0.275
15.953125,-0.235
15.9609375,-0.635
15.96875,-0.695
15.9765625,-0.655
15.984375,-0.555
15.9921875,-0.555
16,-0.525
16.0078125,-0.525
16.015625,-0.555
16.0234375,-0.535
16.03125,-0.535
16.0390625,-0.515
16.046875,-0.495
16.0546875,-0.465
16.0625,-0.455
16.0703125,-0.465
16.078125,-0.455
16.0859375,-0.445
16.09375,-0.395
16.1015625,-0.385
16.109375,-0.335
16.1171875,-0.275
16.125,-0.265
16.1328125,-0.225
16.140625,-0.185
16.1484375,-0.145
16.15625,-0.155
16.1640625,-0.145
16.171875,-0.155
16.1796875,-0.135
16.1875,-0.155
16.1953125,-0.215
16.203125,-0.295
16.2109375,-0.385
16.21875,-0.405
16.2265625,-0.425
16.234375,-0.415
16.2421875,-0.415
16.25,-0.395
16.2578125,-0.415
16.265625,-0.445
16.2734375,-0.435
16.28125,-0.415
16.2890625,-0.395
16.296875,-0.375
16.3046875,-0.335
16.3125,-0.315
16.3203125,-0.295
16.328125,-0.265
16.3359375,-0.245
16.34375,-0.195
16.3515625,-0.205
16.359375,-0.205
16.3671875,-0.225
16.375,-0.265
16.3828125,-0.325
16.390625,-0.345
16.3984375,-0.425
16.40625,-0.475
16.4140625,-0.485
16.421875,-0.495
16.4296875,-0.475
16.4375,-0.605
16.4453125,-0.945
16.453125,-0.885
16.4609375,-0.265
16.46875,0.485
16.4765625,0.485
16.484375,-0.275
16.4921875,-0.645
16.5,-0.595
16.5078125,-0.485
16.515625,-0.425
16.5234375,-0.455
16.53125,-0.445
16.5390625,-0.445
16.546875,-0.425
16.5546875,-0.405
16.5625,-0.395
16.5703125,-0.385
16.578125,-0.375
16.5859375,-0.375
16.59375,-0.375
16.6015625,-0.325
16.609375,-0.325
16.6171875,-0.265
16.625,-0.255
16.6328125,-0.235
16.640625,-0.215
16.6484375,-0.185
16.65625,-0.125
16.6640625,-0.065
16.671875,-0.025
16.6796875,0.015
16.6875,0.035
16.6953125,0.075
16.703125,0.045
16.7109375,0.005
16.71875,0.005
16.7265625,-0.025
16.734375,-0.095
16.7421875,-0.115
16.75,-0.155
16.7578125,-0.195
16.765625,-0.195
16.7734375,-0.215
16.78125,-0.215
16.7890625,-0.195
16.796875,-0.195
16.8046875,-0.165
16.8125,-0.185
16.8203125,-0.195
16.828125,-0.215
16.8359375,-0.205
16.84375,-0.155
16.8515625,-0.135
16.859375,-0.135
16.8671875,-0.115
16.875,-0.065
16.8828125,-0.045
16.890625,-0.035
16.8984375,-0.005
16.90625,-0.025
16.9140625,-0.065
16.921875,-0.135
16.9296875,-0.195
16.9375,-0.255
16.9453125,-0.305
16.953125,-0.305
16.9609375,-0.315
16.96875,-0.295
16.9765625,-0.465
16.984375,-0.735
16.9921875,-0.575
17,0.085
17.0078125,0.615
17.015625,0.225
17.0234375,-0.335
17.03125,-0.495
17.0390625,-0.395
17.046875,-0.335
17.0546875,-0.295
17.0625,-0.295
17.0703125,-0.305
17.078125,-0.305
17.0859375,-0.305
17.09375,-0.295
17.1015625,-0.275
17.109375,-0.285
17.1171875,-0.255
17.125,-0.235
17.1328125,-0.195
17.140625,-0.185
17.1484375,-0.155
17.15625,-0.135
17.1640625,-0.105
17.171875,-0.085
17.1796875,-0.025
17.1875,-0.005
17.1953125,0.045
17.203125,0.055
17.2109375,0.095
17.21875,0.135
17.2265625,0.185
17.234375,0.185
17.2421875,0.175
17.25,0.105
17.2578125,0.045
17.265625,-0.035
17.2734375,-0.085
17.28125,-0.125
17.2890625,-0.145
17.296875,-0.135
17.3046875,-0.145
17.3125,-0.155
17.3203125,-0.155
17.328125,-0.155
17.3359375,-0.155
17.34375,-0.135
17.3515625,-0.165
17.359375,-0.145
17.3671875,-0.155
17.375,-0.135
17.3828125,-0.065
17.390625,-0.045
17.3984375,-0.015
17.40625,0.075
17.4140625,0.095
17.421875,0.085
17.4296875,0.085
17.4375,0.045
17.4453125,0.005
17.453125,-0.075
17.4609375,-0.145
17.46875,-0.175
17.4765625,-0.215
17.484375,-0.225
17.4921875,-0.235
17.5,-0.215
17.5078125,-0.325
17.515625,-0.585
17.5234375,-0.525
17.53125,0.025
17.5390625,0.635
17.546875,0.415
17.5546875,-0.145
17.5625,-0.385
17.5703125,-0.315
17.578125,-0.245
17.5859375,-0.195
17.59375,-0.175
17.6015625,-0.175
17.609375,-0.195
17.6171875,-0.165
17.625,-0.155
17.6328125,-0.145
17.640625,-0.175
17.6484375,-0.135
17.65625,-0.105
17.6640625,-0.085
17.671875,-0.085
17.6796875,-0.075
17.6875,-0.065
17.6953125,-0.075
17.703125,-0.035
17.7109375,0.035
17.71875,0.085
17.7265625,0.125
17.734375,0.155
17.7421875,0.205
17.75,0.225
17.7578125,0.235
17.765625,0.265
17.7734375,0.275
17.78125,0.245
17.7890625,0.175
17.796875,0.125
17.8046875,0.065
17.8125,-0.005
17.8203125,-0.045
17.828125,-0.075
17.8359375,-0.095
17.84375,-0.105
17.8515625,-0.085
17.859375,-0.105
17.8671875,-0.095
17.875,-0.095
17.8828125,-0.095
17.890625,-0.105
17.8984375,-0.105
17.90625,-0.065
17.9140625,-0.055
17.921875,-0.025
17.9296875,0.025
17.9375,0.035
17.9453125,0.105
17.953125,0.095
17.9609375,0.095
17.96875,0.115
17.9765625,0.085
17.984375,0.015
17.9921875,-0.035
18,-0.095
18.0078125,-0.165
18.015625,-0.195
18.0234375,-0.205
18.03125,-0.215
18.0390625,-0.185
18.046875,-0.445
18.0546875,-0.615
18.0625,-0.355
18.0703125,0.385
18.078125,0.735
18.0859375,0.225
18.09375,-0.285
18.1015625,-0.395
18.109375,-0.365
18.1171875,-0.235
18.125,-0.175
18.1328125,-0.175
18.140625,-0.185
18.1484375,-0.185
18.15625,-0.165
18.1640625,-0.145
18.171875,-0.125
18.1796875,-0.125
18.1875,-0.125
18.1953125,-0.105
18.203125,-0.085
18.2109375,-0.055
18.21875,-0.035
18.2265625,-0.015
18.234375,0.025
18.2421875,0.055
18.25,0.085
18.2578125,0.105
18.265625,0.145
18.2734375,0.165
18.28125,0.255
18.2890625,0.305
18.296875,0.315
18.3046875,0.325
18.3125,0.315
18.3203125,0.245
18.328125,0.135
18.3359375,0.035
18.34375,-0.025
18.3515625,-0.075
18.359375,-0.115
18.3671875,-0.065
18.375,-0.085
18.3828125,-0.095
18.390625,-0.065
18.3984375,-0.075
18.40625,-0.085
18.4140625,-0.105
18.421875,-0.105
18.4296875,-0.075
18.4375,-0.075
18.4453125,-0.055
18.453125,-0.055
18.4609375,-0.035
18.46875,0.035
18.4765625,0.075
18.484375,0.095
18.4921875,0.125
18.5,0.075
18.5078125,0.045
18.515625,-0.005
18.5234375,-0.065
18.53125,-0.135
18.5390625,-0.205
18.546875,-0.195
18.5546875,-0.195
18.5625,-0.185
18.5703125,-0.285
18.578125,-0.585
18.5859375,-0.595
18.59375,-0.105
18.6015625,0.555
18.609375,0.675
18.6171875,0.325
18.625,-0.175
18.6328125,-0.355
18.640625,-0.405
18.6484375,-0.335
18.65625,-0.255
18.6640625,-0.215
18.671875,-0.225
18.6796875,-0.215
18.6875,-0.215
18.6953125,-0.215
18.703125,-0.195
18.7109375,-0.215
18.71875,-0.185
18.7265625,-0.165
18.734375,-0.145
18.7421875,-0.125
18.75,-0.125
18.7578125,-0.085
18.765625,-0.025
18.7734375,-0.005
18.78125,0.025
18.7890625,0.065
18.796875,0.105
18.8046875,0.165
18.8125,0.205
18.8203125,0.215
18.828125,0.245
18.8359375,0.225
18.84375,0.225
18.8515625,0.185
18.859375,0.105
18.8671875,0.055
18.875,-0.015
18.8828125,-0.045
18.890625,-0.085
18.8984375,-0.125
18.90625,-0.135
18.9140625,-0.115
18.921875,-0.155
18.9296875,-0.135
18.9375,-0.095
18.9453125,-0.105
18.953125,-0.115
18.9609375,-0.125
18.96875,-0.075
18.9765625,-0.065
18.984375,-0.025
18.9921875,0.005
19,0.045
19.0078125,0.085
19.015625,0.095
19.0234375,0.045
19.03125,0.055
19.0390625,-0.005
19.046875,-0.065
19.0546875,-0.095
19.0625,-0.175
19.0703125,-0.215
19.078125,-0.225
19.0859375,-0.255
19.09375,-0.215
19.1015625,-0.415
19.109375,-0.665
19.1171875,-0.445
19.125,0.235
19.1328125,0.795
19.140625,0.485
19.1484375,-0.035
19.15625,-0.325
19.1640625,-0.365
19.171875,-0.335
19.1796875,-0.225
19.1875,-0.215
19.1953125,-0.215
19.203125,-0.205
19.2109375,-0.205
19.21875,-0.195
19.2265625,-0.175
19.234375,-0.165
19.2421875,-0.155
19.25,-0.155
19.2578125,-0.135
19.265625,-0.115
19.2734375,-0.135
19.28125,-0.095
19.2890625,-0.045
19.296875,-0.005
19.3046875,0.015
19.3125,0.045
19.3203125,0.095
19.328125,0.135
19.3359375,0.165
19.34375,0.195
19.3515625,0.225
19.359375,0.235
19.3671875,0.215
19.375,0.205
19.3828125,0.155
19.390625,0.055
19.3984375,-0.005
19.40625,-0.035
19.4140625,-0.055
19.421875,-0.075
19.4296875,-0.095
19.4375,-0.105
19.4453125,-0.105
19.453125,-0.105
19.4609375,-0.105
19.46875,-0.125
19.4765625,-0.105
19.484375,-0.075
19.4921875,-0.065
19.5,-0.045
19.5078125,-0.015
19.515625,0.015
19.5234375,0.055
19.53125,0.135
19.5390625,0.135
19.546875,0.165
19.5546875,0.135
19.5625,0.065
19.5703125,0.035
19.578125,-0.035
19.5859375,-0.105
19.59375,-0.125
19.6015625,-0.145
19.609375,-0.135
19.6171875,-0.145
19.625,-0.235
19.6328125,-0.545
19.640625,-0.605
19.6484375,-0.035
19.65625,0.635
19.6640625,0.775
19.671875,0.195
19.6796875,-0.265
19.6875,-0.315
19.6953125,-0.255
19.703125,-0.165
19.7109375,-0.115
19.71875,-0.125
19.7265625,-0.125
19.734375,-0.105
19.7421875,-0.085
19.75,-0.085
19.7578125,-0.065
19.765625,-0.065
19.7734375,-0.055
19.78125,-0.015
19.7890625,-0.005
19.796875,-0.005
19.8046875,0.025
19.8125,0.075
19.8203125,0.095
19.828125,0.145
19.8359375,0.185
19.84375,0.225
19.8515625,0.295
19.859375,0.335
19.8671875,0.375
19.875,0.385
19.8828125,0.425
19.890625,0.415
19.8984375,0.385
19.90625,0.345
19.9140625,0.285
19.921875,0.245
19.9296875,0.205
19.9375,0.145
19.9453125,0.125
19.953125,0.115
19.9609375,0.095
19.96875,0.095
19.9765625,0.135
19.984375,0.115
19.9921875,0.115
20,0.125
20.0078125,0.145
20.015625,0.155
20.0234375,0.185
20.03125,0.195
20.0390625,0.255
20.046875,0.265
20.0546875,0.335
20.0625,0.355
20.0703125,0.395
20.078125,0.395
20.0859375,0.335
20.09375,0.305
20.1015625,0.245
20.109375,0.175
20.1171875,0.145
20.125,0.095
20.1328125,0.115
20.140625,0.105
20.1484375,0.075
20.15625,-0.175
20.1640625,-0.305
20.171875,0.045
20.1796875,0.665
20.1875,1.085
20.1953125,0.835
20.203125,0.295
20.2109375,-0.015
20.21875,-0.035
20.2265625,0.025
20.234375,0.105
20.2421875,0.145
20.25,0.155
20.2578125,0.155
20.265625,0.175
20.2734375,0.165
20.28125,0.185
20.2890625,0.205
20.296875,0.195
20.3046875,0.225
20.3125,0.255
20.3203125,0.265
20.328125,0.295
20.3359375,0.295
20.34375,0.355
20.3515625,0.415
20.359375,0.415
20.3671875,0.475
20.375,0.505
20.3828125,0.565
20.390625,0.615
20.3984375,0.615
20.40625,0.645
20.4140625,0.665
20.421875,0.635
20.4296875,0.615
20.4375,0.515
20.4453125,0.465
20.453125,0.405
20.4609375,0.395
20.46875,0.345
20.4765625,0.335
20.484375,0.325
20.4921875,0.325
20.5,0.315
20.5078125,0.305
20.515625,0.325
20.5234375,0.325
20.53125,0.315
20.5390625,0.325
20.546875,0.375
20.5546875,0.405
20.5625,0.425
20.5703125,0.445
20.578125,0.505
20.5859375,0.505
20.59375,0.535
20.6015625,0.515
20.609375,0.485
20.6171875,0.415
20.625,0.355
20.6328125,0.305
20.640625,0.235
20.6484375,0.235
20.65625,0.245
20.6640625,0.255
20.671875,0.135
20.6796875,-0.155
20.6875,-0.155
20.6953125,0.325
20.703125,0.975
20.7109375,1.165
20.71875,0.695
20.7265625,0.225
20.734375,0.085
20.7421875,0.115
20.75,0.185
20.7578125,0.215
20.765625,0.225
20.7734375,0.215
20.78125,0.225
20.7890625,0.235
20.796875,0.245
20.8046875,0.255
20.8125,0.245
20.8203125,0.255
20.828125,0.245
20.8359375,0.295
20.84375,0.315
20.8515625,0.335
20.859375,0.355
20.8671875,0.365
20.875,0.395
20.8828125,0.445
20.890625,0.455
20.8984375,0.495
20.90625,0.525
20.9140625,0.565
20.921875,0.565
20.9296875,0.595
20.9375,0.585
20.9453125,0.575
20.953125,0.525
20.9609375,0.455
20.96875,0.395
20.9765625,0.355
20.984375,0.325
20.9921875,0.285
21,0.285
21.0078125,0.255
21.015625,0.245
21.0234375,0.235
21.03125,0.265
21.0390625,0.255
21.046875,0.225
21.0546875,0.245
21.0625,0.295
21.0703125,0.305
21.078125,0.315
21.0859375,0.305
21.09375,0.375
21.1015625,0.455
21.109375,0.425
21.1171875,0.425
21.125,0.385
21.1328125,0.375
21.140625,0.295
21.1484375,0.235
21.15625,0.175
21.1640625,0.125
21.171875,0.105
21.1796875,0.105
21.1875,0.125
21.1953125,-0.105
21.203125,-0.415
21.2109375,-0.225
21.21875,0.545
21.2265625,1.165
21.234375,0.795
21.2421875,0.145
21.25,-0.145
21.2578125,-0.085
21.265625,0.015
21.2734375,0.075
21.28125,0.045
21.2890625,0.045
21.296875,0.085
21.3046875,0.075
21.3125,0.095
21.3203125,0.075
21.328125,0.085
21.3359375,0.105
21.34375,0.135
21.3515625,0.135
21.359375,0.135
21.3671875,0.145
21.375,0.175
21.3828125,0.205
21.390625,0.215
21.3984375,0.245
21.40625,0.295
21.4140625,0.335
21.421875,0.375
21.4296875,0.415
21.4375,0.435
21.4453125,0.455
21.453125,0.445
21.4609375,0.405
21.46875,0.355
21.4765625,0.325
21.484375,0.255
21.4921875,0.165
21.5,0.125
21.5078125,0.125
21.515625,0.085
21.5234375,0.085
21.53125,0.065
21.5390625,0.065
21.546875,0.075
21.5546875,0.065
21.5625,0.045
21.5703125,0.045
21.578125,0.085
21.5859375,0.095
21.59375,0.115
21.6015625,0.125
21.609375,0.155
21.6171875,0.255
21.625,0.245
21.6328125,0.245
21.640625,0.215
21.6484375,0.165
21.65625,0.145
21.6640625,0.085
21.671875,0.015
21.6796875,-0.055
21.6875,-0.095
21.6953125,-0.085
21.703125,-0.105
21.7109375,-0.095
21.71875,-0.365
21.7265625,-0.575
21.734375,-0.325
21.7421875,0.415
21.75,0.875
21.7578125,0.515
21.765625,-0.095
21.7734375,-0.385
21.78125,-0.305
21.7890625,-0.195
21.796875,-0.105
21.8046875,-0.105
21.8125,-0.115
21.8203125,-0.135
21.828125,-0.135
21.8359375,-0.145
21.84375,-0.125
21.8515625,-0.115
21.859375,-0.135
21.8671875,-0.075
21.875,-0.075
21.8828125,-0.055
21.890625,-0.065
21.8984375,-0.055
21.90625,-0.025
21.9140625,0.005
21.921875,0.065
21.9296875,0.105
21.9375,0.125
21.9453125,0.175
21.953125,0.225
21.9609375,0.195
21.96875,0.235
21.9765625,0.235
21.984375,0.205
21.9921875,0.175
22,0.095
22.0078125,0.015
22.015625,-0.045
22.0234375,-0.095
22.03125,-0.125
22.0390625,-0.135
22.046875,-0.125
22.0546875,-0.155
22.0625,-0.165
22.0703125,-0.175
22.078125,-0.185
22.0859375,-0.215
22.09375,-0.195
22.1015625,-0.155
22.109375,-0.115
22.1171875,-0.125
22.125,-0.135
22.1328125,-0.065
22.140625,-0.005
22.1484375,-0.015
22.15625,0.015
22.1640625,-0.025
22.171875,-0.055
22.1796875,-0.115
22.1875,-0.185
22.1953125,-0.255
22.203125,-0.335
22.2109375,-0.355
22.21875,-0.335
22.2265625,-0.325
22.234375,-0.385
22.2421875,-0.645
22.25,-0.725
22.2578125,-0.335
22.265625,0.355
22.2734375,0.675
22.28125,0.245
22.2890625,-0.295
22.296875,-0.525
22.3046875,-0.555
22.3125,-0.535
22.3203125,-0.435
22.328125,-0.415
22.3359375,-0.415
22.34375,-0.405
22.3515625,-0.385
22.359375,-0.385
22.3671875,-0.375
22.375,-0.385
22.3828125,-0.355
22.390625,-0.355
22.3984375,-0.345
22.40625,-0.335
22.4140625,-0.295
22.421875,-0.285
22.4296875,-0.245
22.4375,-0.225
22.4453125,-0.195
22.453125,-0.155
22.4609375,-0.115
22.46875,-0.065
22.4765625,-0.035
22.484375,-0.015
22.4921875,-0.005
22.5,0.005
22.5078125,-0.025
22.515625,-0.045
22.5234375,-0.125
22.53125,-0.175
22.5390625,-0.235
22.546875,-0.285
22.5546875,-0.325
22.5625,-0.325
22.5703125,-0.315
22.578125,-0.335
22.5859375,-0.365
22.59375,-0.345
22.6015625,-0.355
22.609375,-0.345
22.6171875,-0.325
22.625,-0.335
22.6328125,-0.285
22.640625,-0.265
22.6484375,-0.245
22.65625,-0.215
22.6640625,-0.145
22.671875,-0.125
22.6796875,-0.115
22.6875,-0.115
22.6953125,-0.145
22.703125,-0.205
22.7109375,-0.265
22.71875,-0.295
22.7265625,-0.375
22.734375,-0.405
22.7421875,-0.405
22.75,-0.415
22.7578125,-0.445
22.765625,-0.685
22.7734375,-0.875
22.78125,-0.535
22.7890625,0.165
22.796875,0.615
22.8046875,0.175
22.8125,-0.385
22.8203125,-0.595
22.828125,-0.565
22.8359375,-0.475
22.84375,-0.435
22.8515625,-0.425
22.859375,-0.415
22.8671875,-0.415
22.875,-0.395
22.8828125,-0.395
22.890625,-0.415
22.8984375,-0.375
22.90625,-0.365
22.9140625,-0.345
22.921875,-0.325
22.9296875,-0.305
22.9375,-0.305
22.9453125,-0.255
22.953125,-0.255
22.9609375,-0.245
22.96875,-0.185
22.9765625,-0.145
22.984375,-0.095
22.9921875,-0.055
23,-0.035
23.0078125,-0.035
23.015625,-0.045
23.0234375,-0.015
23.03125,-0.015
23.0390625,-0.025
23.046875,-0.065
23.0546875,-0.135
23.0625,-0.175
23.0703125,-0.235
23.078125,-0.275
23.0859375,-0.295
23.09375,-0.305
23.1015625,-0.315
23.109375,-0.295
23.1171875,-0.285
23.125,-0.295
23.1328125,-0.295
23.140625,-0.315
23.1484375,-0.285
23.15625,-0.225
23.1640625,-0.205
23.171875,-0.185
23.1796875,-0.155
23.1875,-0.115
23.1953125,-0.065
23.203125,-0.075
23.2109375,-0.085
23.21875,-0.085
23.2265625,-0.115
23.234375,-0.165
23.2421875,-0.225
23.25,-0.265
23.2578125,-0.325
23.265625,-0.345
23.2734375,-0.335
23.28125,-0.325
23.2890625,-0.465
23.296875,-0.695
23.3046875,-0.605
23.3125,-0.095
23.3203125,0.465
23.328125,0.425
23.3359375,-0.115
23.34375,-0.465
23.3515625,-0.465
23.359375,-0.395
23.3671875,-0.335
23.375,-0.325
23.3828125,-0.325
23.390625,-0.335
23.3984375,-0.335
23.40625,-0.325
23.4140625,-0.305
23.421875,-0.305
23.4296875,-0.275
23.4375,-0.285
23.4453125,-0.275
23.453125,-0.265
23.4609375,-0.255
23.46875,-0.225
23.4765625,-0.175
23.484375,-0.165
23.4921875,-0.145
23.5,-0.085
23.5078125,-0.045
23.515625,-0.015
23.5234375,0.015
23.53125,0.055
23.5390625,0.075
23.546875,0.085
23.5546875,0.065
23.5625,0.025
23.5703125,-0.025
23.578125,-0.095
23.5859375,-0.165
23.59375,-0.195
23.6015625,-0.215
23.609375,-0.235
23.6171875,-0.245
23.625,-0.245
23.6328125,-0.235
23.640625,-0.265
23.6484375,-0.255
23.65625,-0.235
23.6640625,-0.225
23.671875,-0.215
23.6796875,-0.185
23.6875,-0.165
23.6953125,-0.145
23.703125,-0.115
23.7109375,-0.095
23.71875,-0.025
23.7265625,-0.015
23.734375,-0.005
23.7421875,-0.035
23.75,-0.075
23.7578125,-0.085
23.765625,-0.165
23.7734375,-0.225
23.78125,-0.265
23.7890625,-0.305
23.796875,-0.275
23.8046875,-0.295
23.8125,-0.335
23.8203125,-0.585
23.828125,-0.715
23.8359375,-0.465
23.84375,0.195
23.8515625,0.655
23.859375,0.315
23.8671875,-0.205
23.875,-0.485
23.8828125,-0.475
23.890625,-0.395
23.8984375,-0.315
23.90625,-0.305
23.9140625,-0.295
23.921875,-0.305
23.9296875,-0.285
23.9375,-0.265
23.9453125,-0.265
23.953125,-0.265
23.9609375,-0.255
23.96875,-0.255
23.9765625,-0.245
23.984375,-0.215
23.9921875,-0.185
24,-0.175
24.0078125,-0.165
24.015625,-0.145
24.0234375,-0.105
24.03125,-0.045
24.0390625,0.005
24.046875,0.025
24.0546875,0.065
24.0625,0.115
24.0703125,0.125
24.078125,0.115
24.0859375,0.095
24.09375,0.065
24.1015625,0.015
24.109375,-0.045
24.1171875,-0.095
24.125,-0.135
24.1328125,-0.145
24.140625,-0.165
24.1484375,-0.185
24.15625,-0.205
24.1640625,-0.175
24.171875,-0.195
24.1796875,-0.185
24.1875,-0.185
24.1953125,-0.185
24.203125,-0.185
24.2109375,-0.165
24.21875,-0.125
24.2265625,-0.105
24.234375,-0.095
24.2421875,-0.065
24.25,0.005
24.2578125,0.015
24.265625,0.005
24.2734375,-0.035
24.28125,-0.045
24.2890625,-0.065
24.296875,-0.135
24.3046875,-0.185
24.3125,-0.225
24.3203125,-0.225
24.328125,-0.245
24.3359375,-0.255
24.34375,-0.345
24.3515625,-0.595
24.359375,-0.595
24.3671875,-0.135
24.375,0.495
24.3828125,0.625
24.390625,0.145
24.3984375,-0.295
24.40625,-0.425
24.4140625,-0.405
24.421875,-0.325
24.4296875,-0.255
24.4375,5
24.4453125,5
24.453125,5
24.4609375,5
24.46875,5
24.4765625,5
24.484375,-0.255
24.4921875,-0.225
24.5,-0.205
24.5078125,-0.195
24.515625,-0.165
24.5234375,-0.165
24.53125,-0.135
24.5390625,-0.095
24.546875,-0.065
24.5546875,-0.025
24.5625,0.025
24.5703125,0.065
24.578125,0.095
24.5859375,0.105
24.59375,0.145
24.6015625,0.145
24.609375,0.145
24.6171875,0.105
24.625,0.065
24.6328125,0.025
24.640625,-0.055
24.6484375,-0.125
24.65625,-0.145
24.6640625,-0.145
24.671875,-0.175
24.6796875,-0.155
24.6875,-0.185
24.6953125,-0.165
24.703125,-0.175
24.7109375,-0.195
24.71875,-0.195
24.7265625,-0.145
24.734375,-0.125
24.7421875,-0.095
24.75,-0.075
24.7578125,-0.055
24.765625,-0.015
24.7734375,0.055
24.78125,0.065
24.7890625,0.055
24.796875,0.075
24.8046875,0.055
24.8125,0.005
24.8203125,-0.045
24.828125,-0.115
24.8359375,-0.175
24.84375,-0.205
24.8515625,-0.215
24.859375,-0.245
24.8671875,-0.215
24.875,-0.435
24.8828125,-0.615
24.890625,-0.395
24.8984375,0.265
24.90625,0.765
24.9140625,0.415
24.921875,-0.165
24.9296875,-0.395
24.9375,-0.365
24.9453125,-0.285
24.953125,-0.235
24.9609375,-0.225
24.96875,-0.215
24.9765625,-0.205
24.984375,-0.205
24.9921875,-0.195
25,-0.185
25.0078125,-0.185
25.015625,-0.175
25.0234375,-0.185
25.03125,-0.165
25.0390625,-0.145
25.046875,-0.095
25.0546875,-0.085
25.0625,-0.045
25.0703125,-0.025
25.078125,0.005
25.0859375,0.025
25.09375,0.095
25.1015625,0.135
25.109375,0.185
25.1171875,0.195
25.125,0.215
25.1328125,0.215
25.140625,0.195
25.1484375,0.135
25.15625,0.075
25.1640625,0.025
25.171875,-0.005
25.1796875,-0.035
25.1875,-0.075
25.1953125,-0.085
25.203125,-0.095
25.2109375,-0.095
25.21875,-0.095
25.2265625,-0.095
25.234375,-0.075
25.2421875,-0.085
25.25,-0.105
25.2578125,-0.095
25.265625,-0.065
25.2734375,-0.045
25.28125,-0.005
25.2890625,0.005
25.296875,0.035
25.3046875,0.105
25.3125,0.115
25.3203125,0.115
25.328125,0.105
25.3359375,0.055
25.34375,0.025
25.3515625,-0.035
25.359375,-0.115
25.3671875,-0.145
25.375,-0.165
25.3828125,-0.165
25.390625,-0.185
25.3984375,-0.215
25.40625,-0.455
25.4140625,-0.585
25.421875,-0.325
25.4296875,0.315
25.4375,0.705
25.4453125,0.315
25.453125,-0.225
25.4609375,-0.405
25.46875,-0.335
25.4765625,-0.245
25.484375,-0.195
25.4921875,-0.195
25.5,-0.195
25.5078125,-0.185
25.515625,-0.175
25.5234375,-0.175
25.53125,-0.165
25.5390625,-0.145
25.546875,-0.145
25.5546875,-0.135
25.5625,-0.115
25.5703125,-0.095
25.578125,-0.075
25.5859375,-0.065
25.59375,-0.035
25.6015625,-0.005
25.609375,0.045
25.6171875,0.105
25.625,0.145
25.6328125,0.165
25.640625,0.185
25.6484375,0.225
25.65625,0.235
25.6640625,0.255
25.671875,0.215
25.6796875,0.185
25.6875,0.125
25.6953125,0.065
25.703125,-0.005
25.7109375,-0.055
25.71875,-0.075
25.7265625,-0.095
25.734375,-0.105
25.7421875,-0.115
25.75,-0.105
25.7578125,-0.115
25.765625,-0.115
25.7734375,-0.145
25.78125,-0.135
25.7890625,-0.125
25.796875,-0.105
25.8046875,-0.075
25.8125,-0.055
25.8203125,-0.055
25.828125,-0.025
25.8359375,0.045
25.84375,0.055
25.8515625,0.065
25.859375,0.065
25.8671875,0.035
25.875,-0.015
25.8828125,-0.085
25.890625,-0.165
25.8984375,-0.245
25.90625,-0.255
25.9140625,-0.245
25.921875,-0.255
25.9296875,-0.265
25.9375,-0.515
25.9453125,-0.645
25.953125,-0.295
25.9609375,0.365
25.96875,0.725
25.9765625,0.245
25.984375,-0.295
25.9921875,-0.455
26,-0.425
26.0078125,-0.365
26.015625,-0.295
26.0234375,-0.315
26.03125,-0.275
26.0390625,-0.285
26.046875,-0.255
26.0546875,-0.245
26.0625,-0.255
26.0703125,-0.255
26.078125,-0.235
26.0859375,-0.225
26.09375,-0.215
26.1015625,-0.185
26.109375,-0.185
26.1171875,-0.145
26.125,-0.125
26.1328125,-0.095
26.140625,-0.045
26.1484375,-0.005
26.15625,0.045
26.1640625,0.095
26.171875,0.125
26.1796875,0.145
26.1875,0.145
26.1953125,0.155
26.203125,0.105
26.2109375,0.025
26.21875,-0.025
26.2265625,-0.075
26.234375,-0.145
26.2421875,-0.165
26.25,-0.195
26.2578125,-0.215
26.265625,-0.235
26.2734375,-0.235
26.28125,-0.205
26.2890625,-0.215
26.296875,-0.195
26.3046875,-0.205
26.3125,-0.215
26.3203125,-0.195
26.328125,-0.175
26.3359375,-0.155
26.34375,-0.095
26.3515625,-0.075
26.359375,-0.005
26.3671875,0.005
26.375,0.015
26.3828125,0.015
26.390625,-0.035
26.3984375,-0.075
26.40625,-0.135
26.4140625,-0.175
26.421875,-0.265
26.4296875,-0.275
26.4375,-0.285
26.4453125,-0.285
26.453125,-0.295
26.4609375,-0.615
26.46875,-0.775
26.4765625,-0.395
26.484375,0.395
26.4921875,0.855
26.5,0.315
26.5078125,-0.315
26.515625,-0.485
26.5234375,-0.445
26.53125,-0.335
26.5390625,-0.265
26.546875,-0.275
26.5546875,-0.255
26.5625,-0.255
26.5703125,-0.255
26.578125,-0.235
26.5859375,-0.255
26.59375,-0.225
26.6015625,-0.195
26.609375,-0.185
26.6171875,-0.185
26.625,-0.175
26.6328125,-0.145
26.640625,-0.135
26.6484375,-0.085
26.65625,-0.055
26.6640625,-0.025
26.671875,0.025
26.6796875,0.065
26.6875,0.125
26.6953125,0.155
26.703125,0.165
26.7109375,0.175
26.71875,0.155
26.7265625,0.135
26.734375,0.055
26.7421875,0.015
26.75,-0.065
26.7578125,-0.085
26.765625,-0.155
26.7734375,-0.165
26.78125,-0.165
26.7890625,-0.155
26.796875,-0.155
26.8046875,-0.155
26.8125,-0.165
26.8203125,-0.175
26.828125,-0.205
26.8359375,-0.185
26.84375,-0.155
26.8515625,-0.115
26.859375,-0.085
26.8671875,-0.045
26.875,-0.005
26.8828125,0.065
26.890625,0.045
26.8984375,0.055
26.90625,0.025
26.9140625,-0.015
26.921875,-0.045
26.9296875,-0.085
26.9375,-0.165
26.9453125,-0.235
26.953125,-0.275
26.9609375,-0.255
26.96875,-0.275
26.9765625,-0.245
26.984375,-0.495
26.9921875,-0.745
27,-0.595
27.0078125,0.145
27.015625,0.775
27.0234375,0.505
27.03125,-0.195
27.0390625,-0.495
27.046875,-0.425
27.0546875,-0.325
27.0625,-0.245
27.0703125,-0.245
27.078125,-0.235
27.0859375,-0.265
27.09375,-0.265
27.1015625,-0.235
27.109375,-0.225
27.1171875,-0.195
27.125,-0.195
27.1328125,-0.185
27.140625,-0.165
27.1484375,-0.165
27.15625,-0.155
27.1640625,-0.115
27.171875,-0.105
27.1796875,-0.075
27.1875,-0.035
27.1953125,0.005
27.203125,0.095
27.2109375,0.105
27.21875,0.115
27.2265625,0.165
27.234375,0.195
27.2421875,0.205
27.25,0.185
27.2578125,0.155
27.265625,0.085
27.2734375,0.025
27.28125,-0.045
27.2890625,-0.095
27.296875,-0.125
27.3046875,-0.115
27.3125,-0.145
27.3203125,-0.155
27.328125,-0.125
27.3359375,-0.145
27.34375,-0.155
27.3515625,-0.155
27.359375,-0.175
27.3671875,-0.135
27.375,-0.105
27.3828125,-0.075
27.390625,-0.085
27.3984375,-0.045
27.40625,0.075
27.4140625,0.065
27.421875,0.085
27.4296875,0.035
27.4375,0.005
27.4453125,-0.035
27.453125,-0.135
27.4609375,-0.195
27.46875,-0.245
27.4765625,-0.225
27.484375,-0.205
27.4921875,-0.205
27.5,-0.385
27.5078125,-0.645
27.515625,-0.525
27.5234375,0.105
27.53125,0.795
27.5390625,0.655
27.546875,0.095
27.5546875,-0.335
27.5625,-0.375
27.5703125,-0.365
27.578125,-0.255
27.5859375,-0.205
27.59375,-0.175
27.6015625,-0.185
27.609375,-0.145
27.6171875,-0.115
27.625,-0.135
27.6328125,-0.115
27.640625,-0.105
27.6484375,-0.095
27.65625,-0.095
27.6640625,-0.075
27.671875,-0.005
27.6796875,-0.015
27.6875,0.005
27.6953125,0.025
27.703125,0.085
27.7109375,0.135
27.71875,0.205
27.7265625,0.255
27.734375,0.305
27.7421875,0.355
27.75,0.345
27.7578125,0.385
27.765625,0.355
27.7734375,0.345
27.78125,0.295
27.7890625,0.235
27.796875,0.195
27.8046875,0.125
27.8125,0.105
27.8203125,0.085
27.828125,0.065
27.8359375,0.085
27.84375,0.115
27.8515625,0.095
27.859375,0.095
27.8671875,0.115
27.875,0.125
27.8828125,0.135
27.890625,0.175
27.8984375,0.215
27.90625,0.255
27.9140625,0.295
27.921875,0.355
27.9296875,0.415
27.9375,0.385
27.9453125,0.385
27.953125,0.345
27.9609375,0.345
27.96875,0.325
27.9765625,0.275
27.984375,0.195
27.9921875,0.175
28,0.145
28.0078125,0.145
28.015625,0.165
28.0234375,-0.015
28.03125,-0.275
28.0390625,-0.155
28.046875,0.525
28.0546875,1.195
28.0625,1.105
28.0703125,0.445
28.078125,0.045
28.0859375,0.045
28.09375,0.095
28.1015625,0.215
28.109375,0.255
28.1171875,0.265
28.125,0.255
28.1328125,0.265
28.140625,0.265
28.1484375,0.295
28.15625,0.315
28.1640625,0.325
28.171875,0.345
28.1796875,0.385
28.1875,0.395
28.1953125,0.415
28.203125,0.425
28.2109375,0.445
28.21875,0.505
28.2265625,0.555
28.234375,0.615
28.2421875,0.655
28.25,0.695
28.2578125,0.745
28.265625,0.765
28.2734375,0.805
28.28125,0.805
28.2890625,0.775
28.296875,0.765
28.3046875,0.715
28.3125,0.665
28.3203125,0.575
28.328125,0.535
28.3359375,0.505
28.34375,0.525
28.3515625,0.505
28.359375,0.515
28.3671875,0.515
28.375,0.525
28.3828125,0.505
28.390625,0.495
28.3984375,0.515
28.40625,0.545
28.4140625,0.575
28.421875,0.595
28.4296875,0.635
28.4375,0.695
28.4453125,0.725
28.453125,0.695
28.4609375,0.725
28.46875,0.695
28.4765625,0.665
28.484375,0.615
28.4921875,0.525
28.5,0.475
28.5078125,0.455
28.515625,0.425
28.5234375,0.405
28.53125,0.375
28.5390625,0.265
28.546875,0.025
28.5546875,0.085
28.5625,0.645
28.5703125,1.275
28.578125,1.165
28.5859375,0.545
28.59375,0.205
28.6015625,0.255
28.609375,0.345
28.6171875,0.405
28.625,0.405
28.6328125,0.395
28.640625,0.385
28.6484375,0.405
28.65625,0.425
28.6640625,0.435
28.671875,0.455
28.6796875,0.465
28.6875,0.465
28.6953125,0.485
28.703125,0.465
28.7109375,0.495
28.71875,0.525
28.7265625,0.565
28.734375,0.585
28.7421875,0.605
28.75,0.645
28.7578125,0.685
28.765625,0.705
28.7734375,0.735
28.78125,0.785
28.7890625,0.805
28.796875,0.815
28.8046875,0.785
28.8125,0.745
28.8203125,0.685
28.828125,0.615
28.8359375,0.555
28.84375,0.505
28.8515625,0.485
28.859375,0.465
28.8671875,0.455
28.875,0.435
28.8828125,0.445
28.890625,0.435
28.8984375,0.425
28.90625,0.425
28.9140625,0.435
28.921875,0.465
28.9296875,0.485
28.9375,0.485
28.9453125,0.525
28.953125,0.535
28.9609375,0.595
28.96875,0.615
28.9765625,0.615
28.984375,0.585
28.9921875,0.535
29,0.475
29.0078125,0.415
29.015625,0.345
29.0234375,0.295
29.03125,0.265
29.0390625,0.265
29.046875,0.275
29.0546875,0.175
29.0625,-0.095
29.0703125,-0.145
29.078125,0.245
29.0859375,0.865
29.09375,1.085
29.1015625,0.565
29.109375,0.085
29.1171875,-0.015
29.125,0.065
29.1328125,0.135
29.140625,0.155
29.1484375,0.155
29.15625,0.155
29.1640625,0.165
29.171875,0.155
29.1796875,0.165
29.1875,0.175
29.1953125,0.185
29.203125,0.165
29.2109375,0.165
29.21875,0.185
29.2265625,0.205
29.234375,0.225
29.2421875,0.245
29.25,0.245
29.2578125,0.295
29.265625,0.325
29.2734375,0.335
29.28125,0.395
29.2890625,0.425
29.296875,0.435
29.3046875,0.465
29.3125,0.475
29.3203125,0.435
29.328125,0.395
29.3359375,0.335
29.34375,0.275
29.3515625,0.195
29.359375,0.165
29.3671875,0.135
29.375,0.105
29.3828125,0.075
29.390625,0.045
29.3984375,0.045
29.40625,0.045
29.4140625,0.045
29.421875,0.055
29.4296875,0.035
29.4375,0.065
29.4453125,0.075
29.453125,0.075
29.4609375,0.115
29.46875,0.155
29.4765625,0.205
29.484375,0.225
29.4921875,0.215
29.5,0.185
29.5078125,0.155
29.515625,0.065
29.5234375,0.025
29.53125,-0.065
29.5390625,-0.105
29.546875,-0.105
29.5546875,-0.105
29.5625,-0.125
29.5703125,-0.235
29.578125,-0.515
29.5859375,-0.435
29.59375,0.125
29.6015625,0.745
29.609375,0.745
29.6171875,0.215
29.625,-0.245
29.6328125,-0.365
29.640625,-0.355
29.6484375,-0.295
29.65625,-0.225
29.6640625,-0.225
29.671875,-0.215
29.6796875,-0.215
29.6875,-0.215
29.6953125,-0.215
29.703125,-0.215
29.7109375,-0.195
29.71875,-0.175
29.7265625,-0.155
29.734375,-0.165
29.7421875,-0.155
29.75,-0.115
29.7578125,-0.095
29.765625,-0.085
29.7734375,-0.065
29.78125,-0.025
29.7890625,0.035
29.796875,0.095
29.8046875,0.115
29.8125,0.145
29.8203125,0.165
29.828125,0.145
29.8359375,0.135
29.84375,0.095
29.8515625,0.035
29.859375,-0.025
29.8671875,-0.105
29.875,-0.145
29.8828125,-0.185
29.890625,-0.215
29.8984375,-0.225
29.90625,-0.235
29.9140625,-0.225
29.921875,-0.205
29.9296875,-0.235
29.9375,-0.255
29.9453125,-0.225
29.953125,-0.225
29.9609375,-0.195
29.96875,-0.195
29.9765625,-0.165
29.984375,-0.095
29.9921875,-0.045
30,-0.055
30.0078125,-0.045
30.015625,-0.095
30.0234375,-0.135
30.03125,-0.185
30.0390625,-0.205
30.046875,-0.265
30.0546875,-0.345
30.0625,-0.355
30.0703125,-0.355
30.078125,-0.345
30.0859375,-0.455
30.09375,-0.755
30.1015625,-0.735
30.109375,-0.185
30.1171875,0.535
30.125,0.565
30.1328125,-0.035
30.140625,-0.515
30.1484375,-0.575
30.15625,-0.515
30.1640625,-0.435
30.171875,-0.405
30.1796875,-0.385
30.1875,-0.395
30.1953125,-0.385
30.203125,-0.405
30.2109375,-0.415
30.21875,-0.395
30.2265625,-0.355
30.234375,-0.335
30.2421875,-0.335
30.25,-0.335
30.2578125,-0.315
30.265625,-0.315
30.2734375,-0.295
30.28125,-0.255
30.2890625,-0.235
30.296875,-0.185
30.3046875,-0.145
30.3125,-0.115
30.3203125,-0.065
30.328125,-0.035
30.3359375,-0.015
30.34375,-0.015
30.3515625,-0.005
30.359375,-0.025
30.3671875,-0.075
30.375,-0.145
30.3828125,-0.195
30.390625,-0.245
30.3984375,-0.295
30.40625,-0.305
30.4140625,-0.335
30.421875,-0.335
30.4296875,-0.315
30.4375,-0.325
30.4453125,-0.315
30.453125,-0.335
30.4609375,-0.335
30.46875,-0.315
30.4765625,-0.275
30.484375,-0.265
30.4921875,-0.235
30.5,-0.205
30.5078125,-0.145
30.515625,-0.145
30.5234375,-0.165
30.53125,-0.155
30.5390625,-0.175
30.546875,-0.205
30.5546875,-0.285
30.5625,-0.355
30.5703125,-0.415
30.578125,-0.435
30.5859375,-0.435
30.59375,-0.395
30.6015625,-0.555
30.609375,-0.785
30.6171875,-0.735
30.625,-0.105
30.6328125,0.495
30.640625,0.295
30.6484375,-0.335
30.65625,-0.645
30.6640625,-0.585
30.671875,-0.495
30.6796875,-0.435
30.6875,-0.435
30.6953125,-0.445
30.703125,-0.465
30.7109375,-0.445
30.71875,-0.435
30.7265625,-0.415
30.734375,-0.395
30.7421875,-0.385
30.75,-0.405
30.7578125,-0.375
30.765625,-0.395
30.7734375,-0.345
30.78125,-0.325
30.7890625,-0.315
30.796875,-0.255
30.8046875,-0.235
30.8125,-0.205
30.8203125,-0.155
30.828125,-0.125
30.8359375,-0.115
30.84375,-0.075
30.8515625,-0.055
30.859375,-0.015
30.8671875,-0.035
30.875,-0.075
30.8828125,-0.155
30.890625,-0.225
30.8984375,-0.265
30.90625,-0.315
30.9140625,-0.345
30.921875,-0.325
30.9296875,-0.335
30.9375,-0.345
30.9453125,-0.355
30.953125,-0.365
30.9609375,-0.365
30.96875,-0.355
30.9765625,-0.345
30.984375,-0.315
30.9921875,-0.295
31,-0.265
31.0078125,-0.215
31.015625,-0.195
31.0234375,-0.135
31.03125,-0.145
31.0390625,-0.135
31.046875,-0.155
31.0546875,-0.205
31.0625,-0.245
31.0703125,-0.315
31.078125,-0.375
31.0859375,-0.425
31.09375,-0.445
31.1015625,-0.465
31.109375,-0.415
31.1171875,-0.485
31.125,-0.785
31.1328125,-0.845
31.140625,-0.415
31.1484375,0.275
31.15625,0.465
31.1640625,-0.085
31.171875,-0.565
31.1796875,-0.655
31.1875,-0.565
31.1953125,-0.465
31.203125,-0.455
31.2109375,-0.435
31.21875,-0.425
31.2265625,-0.435
31.234375,-0.415
31.2421875,-0.405
31.25,-0.405
31.2578125,-0.375
31.265625,-0.395
31.2734375,-0.365
31.28125,-0.365
31.2890625,-0.335
31.296875,-0.305
31.3046875,-0.295
31.3125,-0.265
31.3203125,-0.215
31.328125,-0.195
31.3359375,-0.155
31.34375,-0.105
31.3515625,-0.045
31.359375,-0.005
31.3671875,0.015
31.375,-0.005
31.3828125,-0.015
31.390625,-0.015
31.3984375,-0.055
31.40625,-0.145
31.4140625,-0.225
31.421875,-0.255
31.4296875,-0.275
31.4375,-0.315
31.4453125,-0.325
31.453125,-0.365
31.4609375,-0.365
31.46875,-0.345
31.4765625,-0.325
31.484375,-0.345
31.4921875,-0.355
31.5,-0.355
31.5078125,-0.305
31.515625,-0.315
31.5234375,-0.275
31.53125,-0.265
31.5390625,-0.185
31.546875,-0.105
31.5546875,-0.135
31.5625,-0.135
31.5703125,-0.185
31.578125,-0.215
31.5859375,-0.285
31.59375,-0.315
31.6015625,-0.385
31.609375,-0.425
31.6171875,-0.425
31.625,-0.435
31.6328125,-0.435
31.640625,-0.545
31.6484375,-0.825
31.65625,-0.835
31.6640625,-0.235
31.671875,0.435
31.6796875,0.365
31.6875,-0.145
31.6953125,-0.565
31.703125,-0.675
31.7109375,-0.615
31.71875,-0.525
31.7265625,-0.485
31.734375,-0.445
31.7421875,-0.445
31.75,-0.445
31.7578125,-0.445
31.765625,-0.455
31.7734375,-0.435
31.78125,-0.395
31.7890625,-0.385
31.796875,-0.375
31.8046875,-0.365
31.8125,-0.335
31.8203125,-0.345
31.828125,-0.315
31.8359375,-0.255
31.84375,-0.225
31.8515625,-0.165
31.859375,-0.135
31.8671875,-0.095
31.875,-0.055
31.8828125,-0.025
31.890625,-0.025
31.8984375,0.005
31.90625,-0.005
31.9140625,-0.055
31.921875,-0.105
31.9296875,-0.155
31.9375,-0.215
31.9453125,-0.265
31.953125,-0.295
31.9609375,-0.315
31.96875,-0.345
31.9765625,-0.325
31.984375,-0.335
31.9921875,-0.335
32,-0.345
32.0078125,-0.325
32.015625,-0.355
32.0234375,-0.335
32.03125,-0.295
32.0390625,-0.255
32.046875,-0.195
32.0546875,-0.175
32.0625,-0.105
32.0703125,-0.095
32.078125,-0.095
32.0859375,-0.125
32.09375,-0.175
32.1015625,-0.215
32.109375,-0.245
32.1171875,-0.305
32.125,-0.375
32.1328125,-0.375
32.140625,-0.375
32.1484375,-0.355
32.15625,-0.435
32.1640625,-0.795
32.171875,-0.755
32.1796875,-0.145
32.1875,0.615
32.1953125,0.575
32.203125,-0.055
32.2109375,-0.475
32.21875,-0.555
32.2265625,-0.495
32.234375,-0.415
32.2421875,-0.365
32.25,-0.365
32.2578125,-0.355
32.265625,-0.385
32.2734375,-0.335
32.28125,-0.345
32.2890625,-0.325
32.296875,-0.275
32.3046875,-0.275
32.3125,-0.265
32.3203125,-0.265
32.328125,-0.255
32.3359375,-0.225
32.34375,-0.215
32.3515625,-0.145
32.359375,-0.085
32.3671875,-0.065
32.375,-0.025
32.3828125,0.035
32.390625,0.065
32.3984375,0.095
32.40625,0.115
32.4140625,0.115
32.421875,0.145
32.4296875,0.105
32.4375,0.055
32.4453125,-0.015
32.453125,-0.085
32.4609375,-0.105
32.46875,-0.145
32.4765625,-0.175
32.484375,-0.155
32.4921875,-0.165
32.5,-0.175
32.5078125,-0.165
32.515625,-0.175
32.5234375,-0.155
32.53125,-0.165
32.5390625,-0.115
32.546875,-0.085
32.5546875,-0.075
32.5625,-0.065
32.5703125,-0.015
32.578125,0.055
32.5859375,0.065
32.59375,0.065
32.6015625,0.045
32.609375,0.045
32.6171875,0.005
32.625,-0.065
32.6328125,-0.105
32.640625,-0.195
32.6484375,-0.215
32.65625,-0.225
32.6640625,-0.205
32.671875,-0.225
32.6796875,-0.535
32.6875,-0.715
32.6953125,-0.325
32.703125,0.435
32.7109375,0.845
32.71875,0.245
32.7265625,-0.315
32.734375,-0.425
32.7421875,-0.315
32.75,-0.235
32.7578125,-0.185
32.765625,-0.215
32.7734375,-0.185
32.78125,-0.185
32.7890625,-0.165
32.796875,-0.155
32.8046875,-0.155
32.8125,-0.125
32.8203125,-0.125
32.828125,-0.145
32.8359375,-0.105
32.84375,-0.085
32.8515625,-0.055
32.859375,-0.025
32.8671875,-0.005
32.875,0.035
32.8828125,0.075
32.890625,0.115
32.8984375,0.145
32.90625,0.185
32.9140625,0.225
32.921875,0.285
32.9296875,0.295
32.9375,0.275
32.9453125,0.245
32.953125,0.165
32.9609375,0.125
32.96875,0.055
32.9765625,0.025
32.984375,0.005
32.9921875,-0.015
33,-0.065
33.0078125,-0.065
33.015625,-0.075
33.0234375,-0.045
33.03125,-0.035
33.0390625,-0.055
33.046875,-0.045
33.0546875,-0.035
33.0625,-0.005
33.0703125,0.035
33.078125,0.045
33.0859375,0.045
33.09375,0.115
33.1015625,0.165
33.109375,0.195
33.1171875,0.175
33.125,0.135
33.1328125,0.095
33.140625,0.035
33.1484375,-0.055
33.15625,-0.105
33.1640625,-0.145
33.171875,-0.115
33.1796875,-0.145
33.1875,-0.135
33.1953125,-0.235
33.203125,-0.545
33.2109375,-0.555
33.21875,-0.065
33.2265625,0.655
33.234375,0.645
33.2421875,0.035
33.25,-0.335
33.2578125,-0.305
33.265625,-0.245
33.2734375,-0.175
33.28125,-0.145
33.2890625,-0.135
33.296875,-0.135
33.3046875,-0.145
33.3125,-0.125
33.3203125,-0.115
33.328125,-0.095
33.3359375,-0.085
33.34375,-0.075
33.3515625,-0.055
33.359375,-0.045
33.3671875,-0.035
33.375,-0.015
33.3828125,0.025
33.390625,0.035
33.3984375,0.065
33.40625,0.145
33.4140625,0.165
33.421875,0.205
33.4296875,0.265
33.4375,0.295
33.4453125,0.295
33.453125,0.305
33.4609375,0.295
33.46875,0.235
33.4765625,0.215
33.484375,0.175
33.4921875,0.105
33.5,0.035
33.5078125,-0.005
33.515625,-0.055
33.5234375,-0.035
33.53125,-0.025
33.5390625,-0.035
33.546875,-0.025
33.5546875,-0.045
33.5625,-0.055
33.5703125,-0.035
33.578125,-0.025
33.5859375,0.015
33.59375,0.015
33.6015625,0.035
33.609375,0.125
33.6171875,0.165
33.625,0.145
33.6328125,0.175
33.640625,0.115
33.6484375,0.065
33.65625,0.015
33.6640625,-0.045
33.671875,-0.105
33.6796875,-0.135
33.6875,-0.145
33.6953125,-0.155
33.703125,-0.185
33.7109375,-0.265
33.71875,-0.525
33.7265625,-0.525
33.734375,-0.025
33.7421875,0.615
33.75,0.675
33.7578125,0.225
33.765625,-0.225
33.7734375,-0.345
33.78125,-0.345
33.7890625,-0.255
33.796875,-0.175
33.8046875,-0.175
33.8125,-0.185
33.8203125,-0.155
33.828125,-0.145
33.8359375,-0.145
33.84375,-0.145
33.8515625,-0.135
33.859375,-0.095
33.8671875,-0.095
33.875,-0.085
33.8828125,-0.055
33.890625,-0.055
33.8984375,-0.035
33.90625,-0.005
33.9140625,0.045
33.921875,0.095
33.9296875,0.135
33.9375,0.145
33.9453125,0.195
33.953125,0.225
33.9609375,0.255
33.96875,0.265
33.9765625,0.255
33.984375,0.215
33.9921875,0.165
34,0.075
34.0078125,0.025
34.015625,-0.035
34.0234375,-0.065
34.03125,-0.085
34.0390625,-0.085
34.046875,-0.075
34.0546875,-0.065
34.0625,-0.115
34.0703125,-0.115
34.078125,-0.095
34.0859375,-0.085
34.09375,-0.035
34.1015625,-0.025
34.109375,-0.015
34.1171875,-0.005
34.125,0.055
34.1328125,0.115
34.140625,0.115
34.1484375,0.115
34.15625,0.105
34.1640625,0.075
34.171875,0.045
34.1796875,-0.025
34.1875,-0.115
34.1953125,-0.165
34.203125,-0.165
34.2109375,-0.165
34.21875,-0.175
34.2265625,-0.225
34.234375,-0.495
34.2421875,-0.595
34.25,-0.175
34.2578125,0.595
34.265625,0.785
34.2734375,0.305
34.28125,-0.185
34.2890625,-0.325
34.296875,-0.285
34.3046875,-0.235
34.3125,-0.175
34.3203125,-0.165
34.328125,-0.165
34.3359375,-0.165
34.34375,-0.145
34.3515625,-0.155
34.359375,-0.135
34.3671875,-0.125
34.375,-0.105
34.3828125,-0.085
34.390625,-0.075
34.3984375,-0.055
34.40625,-0.045
34.4140625,-0.015
34.421875,0.035
34.4296875,0.065
34.4375,0.085
34.4453125,0.155
34.453125,0.155
34.4609375,0.215
34.46875,0.255
34.4765625,0.285
34.484375,0.305
34.4921875,0.315
34.5,0.265
34.5078125,0.235
34.515625,0.135
34.5234375,0.105
34.53125,0.045
34.5390625,0.005
34.546875,-0.015
34.5546875,-0.045
34.5625,-0.035
34.5703125,-0.015
34.578125,-0.035
34.5859375,-0.015
34.59375,-0.015
34.6015625,-0.035
34.609375,0.025
34.6171875,0.045
34.625,0.075
34.6328125,0.105
34.640625,0.125
34.6484375,0.205
34.65625,0.215
34.6640625,0.205
34.671875,0.195
34.6796875,0.145
34.6875,0.125
34.6953125,0.055
34.703125,-0.035
34.7109375,-0.075
34.71875,-0.105
34.7265625,-0.095
34.734375,-0.075
34.7421875,-0.125
34.75,-0.415
34.7578125,-0.525
34.765625,-0.135
34.7734375,0.595
34.78125,0.765
34.7890625,0.205
34.796875,-0.205
34.8046875,-0.255
34.8125,-0.175
34.8203125,-0.115
34.828125,-0.105
34.8359375,-0.115
34.84375,-0.105
34.8515625,-0.095
34.859375,-0.065
34.8671875,-0.055
34.875,-0.045
34.8828125,-0.055
34.890625,-0.055
34.8984375,-0.035
34.90625,-0.015
34.9140625,0.005
34.921875,0.035
34.9296875,0.045
34.9375,0.065
34.9453125,0.105
34.953125,0.125
34.9609375,0.175
34.96875,0.225
34.9765625,0.265
34.984375,0.315
34.9921875,0.315
35,0.335
35.0078125,0.335
35.015625,0.295
35.0234375,0.235
35.03125,0.175
35.0390625,0.125
35.046875,0.085
35.0546875,0.035
35.0625,0.015
35.0703125,0.035
35.078125,0.005
35.0859375,0.005
35.09375,0.005
35.1015625,0.005
35.109375,0.025
35.1171875,0.015
35.125,0.035
35.1328125,0.065
35.140625,0.085
35.1484375,0.105
35.15625,0.145
35.1640625,0.185
35.171875,0.215
35.1796875,0.225
35.1875,0.185
35.1953125,0.135
35.203125,0.095
35.2109375,0.045
35.21875,-0.035
35.2265625,-0.085
35.234375,-0.095
35.2421875,-0.095
35.25,-0.105
35.2578125,-0.155
35.265625,-0.485
35.2734375,-0.565
35.28125,-0.155
35.2890625,0.535
35.296875,0.795
35.3046875,0.245
35.3125,-0.235
35.3203125,-0.315
35.328125,-0.245
35.3359375,-0.155
35.34375,-0.095
35.3515625,-0.125
35.359375,-0.105
35.3671875,-0.095
35.375,-0.105
35.3828125,-0.085
35.390625,-0.085
35.3984375,-0.075
35.40625,-0.065
35.4140625,-0.065
35.421875,-0.025
35.4296875,-0.035
35.4375,-0.005
35.4453125,0.015
35.453125,0.035
35.4609375,0.085
35.46875,0.115
35.4765625,0.165
35.484375,0.225
35.4921875,0.245
35.5,0.285
35.5078125,0.295
35.515625,0.285
35.5234375,0.285
35.53125,0.275
35.5390625,0.225
35.546875,0.165
35.5546875,0.125
35.5625,0.065
35.5703125,0.025
35.578125,-0.015
35.5859375,-0.065
35.59375,-0.055
35.6015625,-0.055
35.609375,-0.045
35.6171875,-0.065
35.625,-0.055
35.6328125,-0.055
35.640625,-0.055
35.6484375,-0.035
35.65625,-0.005
35.6640625,0.005
35.671875,0.055
35.6796875,0.155
35.6875,0.135
35.6953125,0.145
35.703125,0.085
35.7109375,0.055
35.71875,0.025
35.7265625,-0.005
35.734375,-0.085
35.7421875,-0.175
35.75,-0.185
35.7578125,-0.175
35.765625,-0.185
35.7734375,-0.225
35.78125,-0.475
35.7890625,-0.635
35.796875,-0.315
35.8046875,0.335
35.8125,0.785
35.8203125,0.405
35.828125,-0.165
35.8359375,-0.415
35.84375,-0.395
35.8515625,-0.285
35.859375,-0.225
35.8671875,-0.215
35.875,-0.235
35.8828125,-0.215
35.890625,-0.195
35.8984375,-0.215
35.90625,-0.215
35.9140625,-0.185
35.921875,-0.165
35.9296875,-0.165
35.9375,-0.145
35.9453125,-0.125
35.953125,-0.125
35.9609375,-0.065
35.96875,-0.055
35.9765625,-0.015
35.984375,-0.005
35.9921875,0.065
36,0.145
36.0078125,0.165
36.015625,0.125
36.0234375,0.175
36.03125,0.215
36.0390625,0.185
36.046875,0.155
36.0546875,0.075
36.0625,0.055
36.0703125,-0.015
36.078125,-0.085
36.0859375,-0.125
36.09375,-0.145
36.1015625,-0.145
36.109375,-0.135
36.1171875,-0.185
36.125,-0.175
36.1328125,-0.155
36.140625,-0.155
36.1484375,-0.125
36.15625,-0.095
36.1640625,-0.095
36.171875,-0.055
36.1796875,-0.025
36.1875,0.025
36.1953125,0.075
36.203125,0.075
36.2109375,0.085
36.21875,0.045
36.2265625,0.005
36.234375,-0.045
36.2421875,-0.115
36.25,-0.185
36.2578125,-0.215
36.265625,-0.265
36.2734375,-0.235
36.28125,-0.225
36.2890625,-0.445
36.296875,-0.725
36.3046875,-0.475
36.3125,0.355
36.3203125,0.915
36.328125,0.445
36.3359375,-0.225
36.34375,-0.435
36.3515625,-0.375
36.359375,-0.305
36.3671875,-0.265
36.375,-0.265
36.3828125,-0.265
36.390625,-0.245
36.3984375,-0.245
36.40625,-0.225
36.4140625,-0.225
36.421875,-0.175
36.4296875,-0.195
36.4375,-0.175
36.4453125,-0.165
36.453125,-0.155
36.4609375,-0.145
36.46875,-0.135
36.4765625,-0.075
36.484375,-0.055
36.4921875,0.015
36.5,0.015
36.5078125,0.095
36.515625,0.125
36.5234375,0.175
36.53125,0.175
36.5390625,0.215
36.546875,0.215
36.5546875,0.205
36.5625,0.155
36.5703125,0.105
36.578125,0.015
36.5859375,-0.035
36.59375,-0.065
36.6015625,-0.095
36.609375,-0.085
36.6171875,-0.115
36.625,-0.125
36.6328125,-0.115
36.640625,-0.125
36.6484375,-0.125
36.65625,-0.105
36.6640625,-0.115
36.671875,-0.055
36.6796875,-0.035
36.6875,-0.015
36.6953125,0.045
36.703125,0.105
36.7109375,0.095
36.71875,0.095
36.7265625,0.065
36.734375,0.055
36.7421875,0.025
36.75,-0.065
36.7578125,-0.115
36.765625,-0.185
36.7734375,-0.195
36.78125,-0.205
36.7890625,-0.195
36.796875,-0.165
36.8046875,-0.415
36.8125,-0.675
36.8203125,-0.605
36.828125,-0.225
36.8359375,0.685
36.84375,0.585
36.8515625,-0.075
36.859375,-0.395
36.8671875,-0.345
36.875,-0.265
36.8828125,-0.215
36.890625,-0.215
36.8984375,-0.215
36.90625,-0.215
36.9140625,-0.195
36.921875,-0.165
36.9296875,-0.175
36.9375,-0.175
36.9453125,-0.155
36.953125,-0.155
36.9609375,-0.135
36.96875,-0.145
36.9765625,-0.085
36.984375,-0.055
36.9921875,-0.035
37,-0.035
37.0078125,0.035
37.015625,0.065
37.0234375,0.115
37.03125,0.145
37.0390625,0.175
37.046875,0.215
37.0546875,0.215
37.0625,0.245
37.0703125,0.225
37.078125,0.155
37.0859375,0.105
37.09375,0.035
37.1015625,-0.005
37.109375,-0.035
37.1171875,-0.085
37.125,-0.085
37.1328125,-0.075
37.140625,-0.085
37.1484375,-0.095
37.15625,-0.075
37.1640625,-0.095
37.171875,-0.075
37.1796875,-0.075
37.1875,-0.055
37.1953125,0.005
37.203125,0.015
37.2109375,0.035
37.21875,0.125
37.2265625,0.115
37.234375,0.135
37.2421875,0.085
37.25,0.045
37.2578125,0.015
37.265625,-0.105
37.2734375,-0.125
37.28125,-0.175
37.2890625,-0.185
37.296875,-0.175
37.3046875,-0.185
37.3125,-0.205
37.3203125,-0.535
37.328125,-0.705
37.3359375,-0.355
37.34375,0.455
37.3515625,0.745
37.359375,0.195
37.3671875,-0.285
37.375,-0.365
37.3828125,-0.305
37.390625,-0.255
37.3984375,-0.195
37.40625,-0.195
37.4140625,-0.185
37.421875,-0.185
37.4296875,-0.195
37.4375,-0.175
37.4453125,-0.145
37.453125,-0.155
37.4609375,-0.145
37.46875,-0.145
37.4765625,-0.095
37.484375,-0.085
37.4921875,-0.055
37.5,-0.055
37.5078125,-0.005
37.515625,-0.005
37.5234375,0.025
37.53125,0.075
37.5390625,0.125
37.546875,0.205
37.5546875,0.235
37.5625,0.255
37.5703125,0.295
37.578125,0.245
37.5859375,0.245
37.59375,0.175
37.6015625,0.115
37.609375,0.075
37.6171875,0.015
37.625,-0.015
37.6328125,-0.065
37.640625,-0.105
37.6484375,-0.105
37.65625,-0.115
37.6640625,-0.125
37.671875,-0.085
37.6796875,-0.125
37.6875,-0.115
37.6953125,-0.055
37.703125,-0.035
37.7109375,-0.015
37.71875,0.025
37.7265625,0.055
37.734375,0.125
37.7421875,0.115
37.75,0.105
37.7578125,0.065
37.765625,0.005
37.7734375,-0.025
37.78125,-0.065
37.7890625,-0.135
37.796875,-0.195
37.8046875,-0.225
37.8125,-0.225
37.8203125,-0.215
37.828125,-0.295
37.8359375,-0.615
37.84375,-0.645
37.8515625,-0.185
37.859375,0.565
37.8671875,0.765
37.875,0.275
37.8828125,-0.295
37.890625,-0.445
37.8984375,-0.435
37.90625,-0.295
37.9140625,-0.225
37.921875,-0.235
37.9296875,-0.235
37.9375,-0.215
37.9453125,-0.205
37.953125,-0.235
37.9609375,-0.205
37.96875,-0.185
37.9765625,-0.175
37.984375,-0.145
37.9921875,-0.145
38,-0.145
38.0078125,-0.095
38.015625,-0.115
38.0234375,-0.075
38.03125,-0.025
38.0390625,0.005
38.046875,0.065
38.0546875,0.105
38.0625,0.135
38.0703125,0.155
38.078125,0.175
38.0859375,0.205
38.09375,0.205
38.1015625,0.155
38.109375,0.095
38.1171875,0.015
38.125,-0.045
38.1328125,-0.115
38.140625,-0.115
38.1484375,-0.145
38.15625,-0.175
38.1640625,-0.175
38.171875,-0.165
38.1796875,-0.165
38.1875,-0.155
38.1953125,-0.175
38.203125,-0.175
38.2109375,-0.125
38.21875,-0.095
38.2265625,-0.085
38.234375,-0.025
38.2421875,0.025
38.25,0.055
38.2578125,0.075
38.265625,0.025
38.2734375,0.015
38.28125,-0.025
38.2890625,-0.085
38.296875,-0.145
38.3046875,-0.225
38.3125,-0.265
38.3203125,-0.235
38.328125,-0.255
38.3359375,-0.255
38.34375,-0.485
38.3515625,-0.745
38.359375,-0.525
38.3671875,0.245
38.375,0.845
38.3828125,0.625
38.390625,0.055
38.3984375,-0.365
38.40625,-0.415
38.4140625,-0.395
38.421875,-0.295
38.4296875,-0.265
38.4375,-0.265
38.4453125,-0.225
38.453125,-0.265
38.4609375,-0.235
38.46875,-0.235
38.4765625,-0.215
38.484375,-0.185
38.4921875,-0.135
38.5,-0.145
38.5078125,-0.105
38.515625,-0.105
38.5234375,-0.105
38.53125,-0.085
38.5390625,-0.035
38.546875,0.015
38.5546875,0.055
38.5625,0.105
38.5703125,0.155
38.578125,0.175
38.5859375,0.215
38.59375,0.235
38.6015625,0.245
38.609375,0.275
38.6171875,0.215
38.625,0.145
38.6328125,0.095
38.640625,0.035
38.6484375,0.005
38.65625,-0.015
38.6640625,-0.045
38.671875,-0.025
38.6796875,-0.045
38.6875,-0.055
38.6953125,-0.045
38.703125,-0.065
38.7109375,-0.045
38.71875,-0.015
38.7265625,0.015
38.734375,0.055
38.7421875,0.105
38.75,0.125
38.7578125,0.195
38.765625,0.195
38.7734375,0.225
38.78125,0.205
38.7890625,0.145
38.796875,0.115
38.8046875,0.065
38.8125,-0.015
38.8203125,-0.105
38.828125,-0.095
38.8359375,-0.075
38.84375,-0.045
38.8515625,-0.145
38.859375,-0.505
38.8671875,-0.515
38.875,0.115
38.8828125,0.795
38.890625,0.835
38.8984375,0.155
38.90625,-0.245
38.9140625,-0.225
38.921875,-0.135
38.9296875,-0.085
38.9375,-0.065
38.9453125,-0.065
38.953125,-0.055
38.9609375,-0.055
38.96875,-0.025
38.9765625,-0.035
38.984375,-0.005
38.9921875,0.005
39,0.025
39.0078125,0.055
39.015625,0.035
39.0234375,0.045
39.03125,0.055
39.0390625,0.095
39.046875,0.155
39.0546875,0.175
39.0625,0.205
39.0703125,0.255
39.078125,0.275
39.0859375,0.335
39.09375,0.365
39.1015625,0.375
39.109375,0.405
39.1171875,0.405
39.125,0.395
39.1328125,0.345
39.140625,0.245
39.1484375,0.195
39.15625,0.145
39.1640625,0.115
39.171875,0.105
39.1796875,0.075
39.1875,0.075
39.1953125,0.075
39.203125,0.065
39.2109375,0.085
39.21875,0.075
39.2265625,0.075
39.234375,0.115
39.2421875,0.145
39.25,0.155
39.2578125,0.195
39.265625,0.205
39.2734375,0.265
39.28125,0.275
39.2890625,0.305
39.296875,0.275
39.3046875,0.215
39.3125,0.175
39.3203125,0.105
39.328125,0.015
39.3359375,-0.035
39.34375,-0.025
39.3515625,-0.035
39.359375,-0.005
39.3671875,-0.075
39.375,-0.395
39.3828125,-0.485
39.390625,-0.065
39.3984375,0.665
39.40625,0.845
39.4140625,0.255
39.421875,-0.205
39.4296875,-0.215
39.4375,-0.145
39.4453125,-0.065
39.453125,-0.065
39.4609375,-0.065
39.46875,-0.055
39.4765625,-0.035
39.484375,-0.015
39.4921875,-0.035
39.5,-0.015
39.5078125,0.005
39.515625,-0.005
39.5234375,-0.015
39.53125,0.035
39.5390625,0.045
39.546875,0.055
39.5546875,0.085
39.5625,0.105
39.5703125,0.145
39.578125,0.175
39.5859375,0.225
39.59375,0.275
39.6015625,0.315
39.609375,0.355
39.6171875,0.355
39.625,0.355
39.6328125,0.355
39.640625,0.315
39.6484375,0.255
39.65625,0.175
39.6640625,0.085
39.671875,0.045
39.6796875,0.055
39.6875,0.045
39.6953125,0.015
39.703125,-0.025
39.7109375,-0.015
39.71875,0.035
39.7265625,0.025
39.734375,0.025
39.7421875,0.045
39.75,0.055
39.7578125,0.065
39.765625,0.095
39.7734375,0.155
39.78125,0.215
39.7890625,0.215
39.796875,0.235
39.8046875,0.185
39.8125,0.135
39.8203125,0.085
39.828125,0.025
39.8359375,-0.065
39.84375,-0.095
39.8515625,-0.125
39.859375,-0.135
39.8671875,-0.105
39.875,-0.185
39.8828125,-0.485
39.890625,-0.555
39.8984375,-0.075
39.90625,0.595
39.9140625,0.725
39.921875,0.285
39.9296875,-0.205
39.9375,-0.345
39.9453125,-0.305
39.953125,-0.225
39.9609375,-0.175
39.96875,-0.165
39.9765625,-0.175
39.984375,-0.155
39.9921875,-0.165
40,-0.165
40.0078125,-0.155
40.015625,-0.165
40.0234375,-0.135
40.03125,-0.135
40.0390625,-0.125
40.046875,-0.095
40.0546875,-0.075
40.0625,-0.065
40.0703125,-0.035
40.078125,-0.025
40.0859375,0.035
40.09375,0.095
40.1015625,0.135
40.109375,0.175
40.1171875,0.195
40.125,0.205
40.1328125,0.205
40.140625,0.205
40.1484375,0.155
40.15625,0.095
40.1640625,-0.015
40.171875,-0.035
40.1796875,-0.095
40.1875,-0.135
40.1953125,-0.145
40.203125,-0.185
40.2109375,-0.175
40.21875,-0.175
40.2265625,-0.195
40.234375,-0.175
40.2421875,-0.185
40.25,-0.155
40.2578125,-0.105
40.265625,-0.125
40.2734375,-0.085
40.28125,-0.025
40.2890625,0.015
40.296875,0.025
40.3046875,0.035
40.3125,0.005
40.3203125,-0.015
40.328125,-0.095
40.3359375,-0.185
40.34375,-0.255
40.3515625,-0.305
40.359375,-0.275
40.3671875,-0.305
40.375,-0.305
40.3828125,-0.435
40.390625,-0.765
40.3984375,-0.695
40.40625,-0.055
40.4140625,0.665
40.421875,0.615
40.4296875,-0.045
40.4375,-0.445
40.4453125,-0.495
40.453125,-0.455
40.4609375,-0.375
40.46875,-0.355
40.4765625,-0.355
40.484375,-0.335
40.4921875,-0.335
40.5,-0.335
40.5078125,-0.315
40.515625,-0.315
40.5234375,-0.315
40.53125,-0.285
40.5390625,-0.245
40.546875,-0.205
40.5546875,-0.195
40.5625,-0.185
40.5703125,-0.145
40.578125,-0.145
40.5859375,-0.115
40.59375,-0.075
40.6015625,-0.035
40.609375,0.025
40.6171875,0.045
40.625,0.075
40.6328125,0.105
40.640625,0.105
40.6484375,0.105
40.65625,0.085
40.6640625,0.015
40.671875,-0.035
40.6796875,-0.095
40.6875,-0.175
40.6953125,-0.185
40.703125,-0.195
40.7109375,-0.215
40.71875,-0.205
40.7265625,-0.225
40.734375,-0.205
40.7421875,-0.235
40.75,-0.185
40.7578125,-0.185
40.765625,-0.175
40.7734375,-0.125
40.78125,-0.095
40.7890625,-0.065
40.796875,0.015
40.8046875,-0.005
40.8125,-0.025
40.8203125,-0.055
40.828125,-0.105
40.8359375,-0.135
40.84375,-0.205
40.8515625,-0.255
40.859375,-0.325
40.8671875,-0.345
40.875,-0.335
40.8828125,-0.355
40.890625,-0.415
40.8984375,-0.725
40.90625,-0.795
40.9140625,-0.365
40.921875,0.375
40.9296875,0.675
40.9375,0.135
40.9453125,-0.455
40.953125,-0.525
40.9609375,-0.455
40.96875,-0.355
40.9765625,-0.345
40.984375,-0.335
40.9921875,-0.325
41,-0.335
41.0078125,-0.275
41.015625,-0.315
41.0234375,-0.305
41.03125,-0.325
41.0390625,-0.295
41.046875,-0.285
41.0546875,-0.235
41.0625,-0.245
41.0703125,-0.235
41.078125,-0.215
41.0859375,-0.185
41.09375,-0.145
41.1015625,-0.095
41.109375,0.015
41.1171875,0.045
41.125,0.075
41.1328125,0.095
41.140625,0.055
41.1484375,0.055
41.15625,0.085
41.1640625,0.015
41.171875,-0.025
41.1796875,-0.115
41.1875,-0.165
41.1953125,-0.265
41.203125,-0.285
41.2109375,-0.285
41.21875,-0.305
41.2265625,-0.275
41.234375,-0.255
41.2421875,-0.275
41.25,-0.255
41.2578125,-0.275
41.265625,-0.215
41.2734375,-0.155
41.28125,-0.185
41.2890625,-0.165
41.296875,-0.115
41.3046875,-0.015
41.3125,-0.105
41.3203125,-0.115
41.328125,-0.105
41.3359375,-0.175
41.34375,-0.255
41.3515625,-0.325
41.359375,-0.375
41.3671875,-0.435
41.375,-0.465
41.3828125,-0.455
41.390625,-0.495
41.3984375,-0.575
41.40625,-0.905
41.4140625,-0.895
41.421875,-0.345
41.4296875,0.375
41.4375,0.575
41.4453125,-0.035
41.453125,-0.545
41.4609375,-0.655
41.46875,-0.585
41.4765625,-0.485
41.484375,-0.455
41.4921875,-0.505
41.5,-0.495
41.5078125,-0.435
41.515625,-0.445
41.5234375,-0.485
41.53125,-0.445
41.5390625,-0.445
41.546875,-0.445
41.5546875,-0.405
41.5625,-0.405
41.5703125,-0.385
41.578125,-0.345
41.5859375,-0.385
41.59375,-0.255
41.6015625,-0.215
41.609375,-0.155
41.6171875,-0.145
41.625,-0.145
41.6328125,-0.065
41.640625,-0.045
41.6484375,-0.045
41.65625,0.045
41.6640625,0.025
41.671875,-0.045
41.6796875,-0.085
41.6875,-0.125
41.6953125,-0.195
41.703125,-0.265
41.7109375,-0.275
41.71875,-0.235
41.7265625,-0.265
41.734375,-0.235
41.7421875,-0.245
41.75,-0.205
41.7578125,-0.195
41.765625,-0.275
41.7734375,-0.175
41.78125,-0.195
41.7890625,-0.285
41.796875,-0.135
41.8046875,0.005
41.8125,-0.015
41.8203125,0.035
41.828125,-0.025
41.8359375,-0.065
41.84375,-0.035
41.8515625,-0.175
41.859375,-0.135
41.8671875,-0.225
41.875,-0.275
41.8828125,-0.265
41.890625,-0.295
41.8984375,-0.215
41.90625,-0.585
41.9140625,-0.805
41.921875,-0.385
41.9296875,0.445
41.9375,0.955
41.9453125,0.395
41.953125,-0.225
41.9609375,-0.315
41.96875,-0.305
41.9765625,-0.275
41.984375,-0.155
41.9921875,-0.155
42,-0.135
42.0078125,-0.105
42.015625,-0.105
42.0234375,-0.175
42.03125,-0.035
42.0390625,-0.035
42.046875,-0.035
42.0546875,-0.005
42.0625,-0.015
42.0703125,0.065
42.078125,0.025
42.0859375,0.075
42.09375,0.115
42.1015625,0.085
42.109375,0.185
42.1171875,0.225
42.125,0.355
42.1328125,0.285
42.140625,0.345
42.1484375,0.345
42.15625,0.395
42.1640625,0.395
42.171875,0.395
42.1796875,0.375
42.1875,0.275
42.1953125,0.295
42.203125,0.205
42.2109375,0.145
42.21875,0.155
42.2265625,0.135
42.234375,0.145
42.2421875,0.155
42.25,0.205
42.2578125,0.095
42.265625,0.185
42.2734375,0.205
42.28125,0.195
42.2890625,0.255
42.296875,0.345
42.3046875,0.325
42.3125,0.455
42.3203125,0.385
42.328125,0.385
42.3359375,0.385
42.34375,0.415
42.3515625,0.305
42.359375,0.295
42.3671875,0.215
42.375,0.225
42.3828125,0.315
42.390625,0.145
42.3984375,0.175
42.40625,0.145
42.4140625,-0.185
42.421875,-0.255
42.4296875,0.085
42.4375,0.975
42.4453125,1.185
42.453125,0.575
42.4609375,0.165
42.46875,0.175
42.4765625,0.125
42.484375,0.125
42.4921875,0.325
42.5,0.235
42.5078125,0.145
42.515625,0.275
42.5234375,0.235
42.53125,0.315
42.5390625,0.235
42.546875,0.325
42.5546875,0.295
42.5625,0.305
42.5703125,0.275
42.578125,0.445
42.5859375,0.365
42.59375,0.315
42.6015625,0.465
42.609375,0.535
42.6171875,0.505
42.625,0.475
42.6328125,0.635
42.640625,0.715
42.6484375,0.665
42.65625,0.615
42.6640625,0.665
42.671875,0.695
42.6796875,0.685
42.6875,0.535
42.6953125,0.575
42.703125,0.525
42.7109375,0.365
42.71875,0.335
42.7265625,0.395
42.734375,0.295
42.7421875,0.395
42.75,0.235
42.7578125,0.475
42.765625,0.305
42.7734375,0.375
42.78125,0.295
42.7890625,0.315
42.796875,0.565
42.8046875,0.325
42.8125,0.585
42.8203125,0.525
42.828125,0.485
42.8359375,0.455
42.84375,0.405
42.8515625,0.555
42.859375,0.525
42.8671875,0.335
42.875,0.335
42.8828125,0.215
42.890625,0.325
42.8984375,0.015
42.90625,0.335
42.9140625,-0.055
42.921875,-0.315
42.9296875,-0.175
42.9375,0.345
42.9453125,1.095
42.953125,1.095
42.9609375,0.435
42.96875,0.135
42.9765625,0.025
42.984375,0.055
42.9921875,0.215
43,0.215
43.0078125,0.245
43.015625,0.075
43.0234375,0.235
43.03125,0.165
43.0390625,0.275
43.046875,0.215
43.0546875,0.195
43.0625,0.195
43.0703125,0.215
43.078125,0.215
43.0859375,0.285
43.09375,0.125
43.1015625,0.265
43.109375,0.345
43.1171875,0.345
43.125,0.405
43.1328125,0.565
43.140625,0.525
43.1484375,0.445
43.15625,0.575
43.1640625,0.525
43.171875,0.505
43.1796875,0.495
43.1875,0.565
43.1953125,0.445
43.203125,0.425
43.2109375,0.135
43.21875,0.305
43.2265625,0.285
43.234375,0.095
43.2421875,0.165
43.25,0.195
43.2578125,0.235
43.265625,0.135
43.2734375,0.215
43.28125,0.185
43.2890625,0.335
43.296875,0.265
43.3046875,0.205
43.3125,0.235
43.3203125,0.425
43.328125,0.255
43.3359375,0.435
43.34375,0.405
43.3515625,0.425
43.359375,0.345
43.3671875,0.165
43.375,0.045
43.3828125,0.175
43.390625,0.115
43.3984375,0.075
43.40625,0.105
43.4140625,0.025
43.421875,-0.455
43.4296875,-0.455
43.4375,0.325
43.4453125,0.965
43.453125,0.955
43.4609375,0.445
43.46875,-0.125
43.4765625,-0.005
43.484375,0.055
43.4921875,0.055
43.5,0.035
43.5078125,-0.015
43.515625,0.085
43.5234375,-0.025
43.53125,0.165
43.5390625,0.065
43.546875,0.115
43.5546875,0.165
43.5625,0.075
43.5703125,0.105
43.578125,0.185
43.5859375,0.135
43.59375,0.105
43.6015625,0.235
43.609375,0.265
43.6171875,0.195
43.625,0.295
43.6328125,0.305
43.640625,0.415
43.6484375,0.435
43.65625,0.285
43.6640625,0.555
43.671875,0.555
43.6796875,0.405
43.6875,0.405
43.6953125,0.305
43.703125,0.245
43.7109375,0.255
43.71875,0.035
43.7265625,0.105
43.734375,0.115
43.7421875,0.115
43.75,0.055
43.7578125,0.075
43.765625,0.095
43.7734375,0.135
43.78125,0.085
43.7890625,-0.035
43.796875,0.185
43.8046875,0.235
43.8125,0.195
43.8203125,0.325
43.828125,0.235
43.8359375,0.095
43.84375,0.305
43.8515625,0.135
43.859375,0.265
43.8671875,0.195
43.875,-0.155
43.8828125,-0.025
43.890625,-0.055
43.8984375,-0.045
43.90625,-0.105
43.9140625,-0.025
43.921875,-0.395
43.9296875,-0.605
43.9375,-0.345
43.9453125,0.495
43.953125,0.985
43.9609375,0.505
43.96875,-0.065
43.9765625,-0.295
43.984375,-0.245
43.9921875,-0.285
44,-0.215
44.0078125,-0.065
44.015625,-0.175
44.0234375,-0.135
44.03125,-0.145
44.0390625,-0.095
44.046875,-0.045
44.0546875,-0.095
44.0625,-0.075
44.0703125,-0.065
44.078125,-0.025
44.0859375,-0.035
44.09375,0.005
44.1015625,-0.055
44.109375,0.035
44.1171875,0.085
44.125,0.115
44.1328125,0.175
44.140625,0.125
44.1484375,0.165
44.15625,0.225
44.1640625,0.235
44.171875,0.265
44.1796875,0.245
44.1875,0.265
44.1953125,0.195
44.203125,0.115
44.2109375,0.045
44.21875,-0.015
44.2265625,0.025
44.234375,-0.045
44.2421875,-0.055
44.25,-0.085
44.2578125,-0.105
44.265625,-0.045
44.2734375,-0.095
44.28125,-0.065
44.2890625,-0.015
44.296875,0.045
44.3046875,0.045
44.3125,0.035
44.3203125,0.105
44.328125,0.105
44.3359375,0.105
44.34375,0.075
44.3515625,0.135
44.359375,0.045
44.3671875,-0.105
44.375,-0.085
44.3828125,-0.155
44.390625,-0.215
44.3984375,-0.195
44.40625,-0.205
44.4140625,-0.255
44.421875,-0.585
44.4296875,-0.755
44.4375,-0.425
44.4453125,0.335
44.453125,0.735
44.4609375,0.295
44.46875,-0.215
44.4765625,-0.345
44.484375,-0.395
44.4921875,-0.365
44.5,-0.245
44.5078125,-0.285
44.515625,-0.295
44.5234375,-0.295
44.53125,-0.295
44.5390625,-0.265
44.546875,-0.245
44.5546875,-0.235
44.5625,-0.275
44.5703125,-0.245
44.578125,-0.225
44.5859375,-0.255
44.59375,-0.195
44.6015625,-0.195
44.609375,-0.145
44.6171875,-0.175
44.625,-0.085
44.6328125,-0.035
44.640625,0.025
44.6484375,0.035
44.65625,0.075
44.6640625,0.065
44.671875,0.115
44.6796875,0.085
44.6875,0.065
44.6953125,-0.005
44.703125,-0.095
44.7109375,-0.195
44.71875,-0.215
44.7265625,-0.275
44.734375,-0.305
44.7421875,-0.335
44.75,-0.295
44.7578125,-0.345
44.765625,-0.375
44.7734375,-0.345
44.78125,-0.305
44.7890625,-0.285
44.796875,-0.225
44.8046875,-0.235
44.8125,-0.265
44.8203125,-0.165
44.828125,-0.205
44.8359375,-0.115
44.84375,-0.095
44.8515625,-0.175
44.859375,-0.195
44.8671875,-0.255
44.875,-0.355
44.8828125,-0.385
44.890625,-0.435
44.8984375,-0.435
44.90625,-0.465
44.9140625,-0.475
44.921875,-0.785
44.9296875,-1.025
44.9375,-0.595
44.9453125,0.235
44.953125,0.855
44.9609375,0.225
44.96875,-0.405
44.9765625,-0.755
44.984375,-0.725
44.9921875,-0.615
45,-0.555
45.0078125,-0.555
45.015625,-0.535
45.0234375,-0.525
45.03125,-0.485
45.0390625,-0.495
45.046875,-0.465
45.0546875,-0.455
45.0625,-0.515
45.0703125,-0.455
45.078125,-0.435
45.0859375,-0.415
45.09375,-0.435
45.1015625,-0.405
45.109375,-0.365
45.1171875,-0.365
45.125,-0.295
45.1328125,-0.195
45.140625,-0.185
45.1484375,-0.165
45.15625,-0.075
45.1640625,-0.085
45.171875,-0.095
45.1796875,-0.105
45.1875,-0.125
45.1953125,-0.175
45.203125,-0.245
45.2109375,-0.285
45.21875,-0.375
45.2265625,-0.405
45.234375,-0.405
45.2421875,-0.445
45.25,-0.465
45.2578125,-0.475
45.265625,-0.475
45.2734375,-0.445
45.28125,-0.405
45.2890625,-0.385
45.296875,-0.375
45.3046875,-0.355
45.3125,-0.315
45.3203125,-0.255
45.328125,-0.285
45.3359375,-0.245
45.34375,-0.205
45.3515625,-0.275
45.359375,-0.295
45.3671875,-0.355
45.375,-0.435
45.3828125,-0.485
45.390625,-0.505
45.3984375,-0.515
45.40625,-0.565
45.4140625,-0.545
45.421875,-0.675
45.4296875,-1.045
45.4375,-0.895
45.4453125,-0.255
45.453125,0.505
45.4609375,0.395
45.46875,-0.175
45.4765625,-0.685
45.484375,-0.705
45.4921875,-0.685
45.5,-0.525
45.5078125,-0.535
45.515625,-0.475
45.5234375,-0.145
45.53125,-0.505
45.5390625,-0.625
45.546875,-0.635
45.5546875,-0.615
45.5625,-0.475
45.5703125,-0.435
45.578125,-0.435
45.5859375,-0.475
45.59375,-0.415
45.6015625,-0.415
45.609375,-0.415
45.6171875,-0.375
45.625,-0.295
45.6328125,-0.235
45.640625,-0.185
45.6484375,-0.155
45.65625,-0.135
45.6640625,-0.125
45.671875,-0.125
45.6796875,-0.145
45.6875,-0.125
45.6953125,-0.195
45.703125,-0.245
45.7109375,-0.335
45.71875,-0.365
45.7265625,-0.365
45.734375,-0.435
45.7421875,-0.405
45.75,-0.425
45.7578125,-0.405
45.765625,-0.425
45.7734375,-0.395
45.78125,-0.365
45.7890625,-0.355
45.796875,-0.375
45.8046875,-0.355
45.8125,-0.315
45.8203125,-0.255
45.828125,-0.255
45.8359375,-0.235
45.84375,-0.215
45.8515625,-0.245
45.859375,-0.255
45.8671875,-0.345
45.875,-0.425
45.8828125,-0.475
45.890625,-0.515
45.8984375,-0.485
45.90625,-0.495
45.9140625,-0.505
45.921875,-0.845
45.9296875,-1.035
45.9375,-0.755
45.9453125,0.115
45.953125,0.715
45.9609375,0.185
45.96875,-0.375
45.9765625,-0.625
45.984375,-0.565
45.9921875,-0.535
46,-0.455
46.0078125,-0.485
46.015625,-0.475
46.0234375,-0.485
46.03125,-0.455
46.0390625,-0.415
46.046875,-0.455
46.0546875,-0.405
46.0625,-0.425
46.0703125,-0.375
46.078125,-0.365
46.0859375,-0.445
46.09375,-0.355
46.1015625,-0.275
46.109375,-0.215
46.1171875,-0.265
46.125,-0.225
46.1328125,-0.155
46.140625,-0.155
46.1484375,-0.115
46.15625,-0.045
46.1640625,-0.015
46.171875,-0.015
46.1796875,-0.005
46.1875,-0.025
46.1953125,-0.055
46.203125,-0.125
46.2109375,-0.165
46.21875,-0.215
46.2265625,-0.235
46.234375,-0.285
46.2421875,-0.305
46.25,-0.315
46.2578125,-0.295
46.265625,-0.295
46.2734375,-0.305
46.28125,-0.295
46.2890625,-0.265
46.296875,-0.205
46.3046875,-0.205
46.3125,-0.165
46.3203125,-0.135
46.328125,-0.055
46.3359375,-0.065
46.34375,-0.035
46.3515625,-0.085
46.359375,-0.115
46.3671875,-0.145
46.375,-0.225
46.3828125,-0.275
46.390625,-0.365
46.3984375,-0.365
46.40625,-0.325
46.4140625,-0.345
46.421875,-0.365
46.4296875,-0.775
46.4375,-0.875
46.4453125,-0.375
46.453125,0.465
46.4609375,0.625
46.46875,-0.065
46.4765625,-0.495
46.484375,-0.485
46.4921875,-0.435
46.5,-0.355
46.5078125,-0.335
46.515625,-0.375
46.5234375,-0.355
46.53125,-0.305
46.5390625,-0.265
46.546875,-0.275
46.5546875,-0.265
46.5625,-0.235
46.5703125,-0.245
46.578125,-0.245
46.5859375,-0.195
46.59375,-0.195
46.6015625,-0.155
46.609375,-0.115
46.6171875,-0.085
46.625,-0.045
46.6328125,-0.025
46.640625,0.025
46.6484375,0.105
46.65625,0.145
46.6640625,0.165
46.671875,0.175
46.6796875,0.215
46.6875,0.195
46.6953125,0.125
46.703125,0.075
46.7109375,0.025
46.71875,-0.005
46.7265625,-0.065
46.734375,-0.075
46.7421875,-0.075
46.75,-0.095
46.7578125,-0.095
46.765625,-0.055
46.7734375,-0.055
46.78125,-0.085
46.7890625,-0.035
46.796875,-0.005
46.8046875,0.005
46.8125,0.055
46.8203125,0.075
46.828125,0.125
46.8359375,0.175
46.84375,0.165
46.8515625,0.145
46.859375,0.155
46.8671875,0.125
46.875,0.095
46.8828125,0.035
46.890625,-0.055
46.8984375,-0.075
46.90625,-0.065
46.9140625,-0.125
46.921875,-0.055
46.9296875,-0.215
46.9375,-0.565
46.9453125,-0.495
46.953125,0.105
46.9609375,0.795
46.96875,0.825
46.9765625,0.235
46.984375,-0.185
46.9921875,-0.245
47,-0.195
47.0078125,-0.055
47.015625,-0.055
47.0234375,-0.045
47.03125,-0.045
47.0390625,-0.015
47.046875,-0.015
47.0546875,0.035
47.0625,0.045
47.0703125,0.065
47.078125,0.075
47.0859375,0.105
47.09375,0.075
47.1015625,0.125
47.109375,0.165
47.1171875,0.185
47.125,0.205
47.1328125,0.235
47.140625,0.275
47.1484375,0.305
47.15625,0.385
47.1640625,0.425
47.171875,0.485
47.1796875,0.495
47.1875,0.535
47.1953125,0.525
47.203125,0.435
47.2109375,0.395
47.21875,0.315
47.2265625,0.275
47.234375,0.265
47.2421875,0.235
47.25,0.205
47.2578125,0.195
47.265625,0.185
47.2734375,0.215
47.28125,0.235
47.2890625,0.235
47.296875,0.285
47.3046875,0.315
47.3125,0.295
47.3203125,0.375
47.328125,0.345
47.3359375,0.445
47.34375,0.465
47.3515625,0.495
47.359375,0.475
47.3671875,0.415
47.375,0.395
47.3828125,0.345
47.390625,0.255
47.3984375,0.175
47.40625,0.195
47.4140625,0.215
47.421875,0.205
47.4296875,0.155
47.4375,-0.195
47.4453125,-0.365
47.453125,0.175
47.4609375,1.015
47.46875,1.275
47.4765625,0.715
47.484375,0.175
47.4921875,-0.015
47.5,0.005
47.5078125,0.065
47.515625,0.225
47.5234375,0.255
47.53125,0.255
47.5390625,0.265
47.546875,0.255
47.5546875,0.255
47.5625,0.265
47.5703125,0.265
47.578125,0.255
47.5859375,0.285
47.59375,0.325
47.6015625,0.335
47.609375,0.355
47.6171875,0.385
47.625,0.385
47.6328125,0.425
47.640625,0.495
47.6484375,0.525
47.65625,0.565
47.6640625,0.585
47.671875,0.625
47.6796875,0.645
47.6875,0.675
47.6953125,0.625
47.703125,0.645
47.7109375,0.615
47.71875,0.545
47.7265625,0.475
47.734375,0.445
47.7421875,0.395
47.75,0.365
47.7578125,0.345
47.765625,0.345
47.7734375,0.335
47.78125,0.325
47.7890625,0.345
47.796875,0.345
47.8046875,0.375
47.8125,0.405
47.8203125,0.435
47.828125,0.425
47.8359375,0.455
47.84375,0.535
47.8515625,0.525
47.859375,0.525
47.8671875,0.535
47.875,0.475
47.8828125,0.445
47.890625,0.375
47.8984375,0.315
47.90625,0.245
47.9140625,0.185
47.921875,0.245
47.9296875,0.225
47.9375,0.165
47.9453125,-0.145
47.953125,-0.305
47.9609375,0.075
47.96875,0.855
47.9765625,1.205
47.984375,0.545
47.9921875,-0.005
48,-0.055
48.0078125,0.035
48.015625,0.085
48.0234375,0.135
48.03125,0.165
48.0390625,0.155
48.046875,0.135
48.0546875,0.115
48.0625,0.145
48.0703125,0.155
48.078125,0.195
48.0859375,0.145
48.09375,0.165
48.1015625,0.145
48.109375,0.165
48.1171875,0.165
48.125,0.185
48.1328125,0.255
48.140625,0.275
48.1484375,0.255
48.15625,0.265
48.1640625,0.335
48.171875,0.425
48.1796875,0.395
48.1875,0.355
48.1953125,0.455
48.203125,0.405
48.2109375,0.345
48.21875,0.265
48.2265625,0.195
48.234375,0.155
48.2421875,0.085
48.25,0.035
48.2578125,0.085
48.265625,0.095
48.2734375,0.045
48.28125,0.005
48.2890625,0.035
48.296875,0.005
48.3046875,0.005
48.3125,0.055
48.3203125,0.095
48.328125,0.095
48.3359375,0.085
48.34375,0.135
48.3515625,0.185
48.359375,0.185
48.3671875,0.175
48.375,0.155
48.3828125,0.195
48.390625,0.135
48.3984375,0.115
48.40625,0.025
48.4140625,-0.115
48.421875,-0.125
48.4296875,-0.075
48.4375,-0.055
48.4453125,-0.115
48.453125,-0.395
48.4609375,-0.665
48.46875,-0.415
48.4765625,0.375
48.484375,0.875
48.4921875,0.475
48.5,-0.125
48.5078125,-0.335
48.515625,-0.355
48.5234375,-0.295
48.53125,-0.195
48.5390625,-0.175
48.546875,-0.195
48.5546875,-0.155
48.5625,-0.195
48.5703125,-0.165
48.578125,-0.195
48.5859375,-0.155
48.59375,-0.155
48.6015625,-0.165
48.609375,-0.095
48.6171875,-0.075
48.625,-0.055
48.6328125,-0.035
48.640625,-0.015
48.6484375,-0.005
48.65625,0.035
48.6640625,0.025
48.671875,0.105
48.6796875,0.125
48.6875,0.155
48.6953125,0.165
48.703125,0.175
48.7109375,0.175
48.71875,0.175
48.7265625,0.085
48.734375,0.035
48.7421875,-0.025
48.75,-0.045
48.7578125,-0.075
48.765625,-0.155
48.7734375,-0.165
48.78125,-0.165
48.7890625,-0.235
48.796875,-0.215
48.8046875,-0.185
48.8125,-0.165
48.8203125,-0.075
48.828125,-0.105
48.8359375,-0.075
48.84375,-0.035
48.8515625,-0.025
48.859375,0.015
48.8671875,-0.015
48.875,-0.015
48.8828125,0.005
48.890625,-0.045
48.8984375,-0.045
48.90625,-0.155
48.9140625,-0.185
48.921875,-0.215
48.9296875,-0.285
48.9375,-0.195
48.9453125,-0.235
48.953125,-0.415
48.9609375,-0.715
48.96875,-0.805
48.9765625,-0.445
48.984375,0.295
48.9921875,0.545
49,-0.045
49.0078125,-0.475
49.015625,-0.515
49.0234375,-0.475
49.03125,-0.365
49.0390625,-0.325
49.046875,-0.315
49.0546875,-0.185
49.0625,-0.285
49.0703125,-0.385
49.078125,-0.305
49.0859375,-0.385
49.09375,-0.405
49.1015625,-0.315
49.109375,-0.265
49.1171875,-0.275
49.125,-0.305
49.1328125,-0.315
49.140625,-0.315
49.1484375,-0.295
49.15625,5
49.1640625,5
49.171875,5
49.1796875,5
49.1875,5
49.1953125,5
49.203125,-0.115
49.2109375,-0.075
49.21875,-0.005
49.2265625,0.015
49.234375,-0.045
49.2421875,-0.095
49.25,-0.165
49.2578125,-0.215
49.265625,-0.285
49.2734375,-0.295
49.28125,-0.285
49.2890625,-0.315
49.296875,-0.345
49.3046875,-0.345
49.3125,-0.355
49.3203125,-0.355
49.328125,-0.375
49.3359375,-0.335
49.34375,-0.295
49.3515625,-0.305
49.359375,-0.285
49.3671875,-0.215
49.375,-0.115
49.3828125,-0.115
49.390625,-0.155
49.3984375,-0.225
49.40625,-0.265
49.4140625,-0.305
49.421875,-0.335
49.4296875,-0.405
49.4375,-0.475
49.4453125,-0.475
49.453125,-0.445
49.4609375,-0.455
49.46875,-0.685
49.4765625,-0.925
49.484375,-0.745
49.4921875,-0.065
49.5,0.545
49.5078125,0.205
49.515625,-0.375
49.5234375,-0.635
49.53125,-0.655
49.5390625,-0.615
49.546875,-0.525
49.5546875,-0.505
49.5625,-0.495
49.5703125,-0.495
49.578125,-0.505
49.5859375,-0.475
49.59375,-0.485
49.6015625,-0.445
49.609375,-0.455
49.6171875,-0.435
49.625,-0.435
49.6328125,-0.435
49.640625,-0.445
49.6484375,-0.415
49.65625,-0.375
49.6640625,-0.335
49.671875,-0.305
49.6796875,-0.265
49.6875,-0.215
49.6953125,-0.165
49.703125,-0.145
49.7109375,-0.145
49.71875,-0.105
49.7265625,-0.105
49.734375,-0.145
49.7421875,-0.175
49.75,-0.245
49.7578125,-0.325
49.765625,-0.395
49.7734375,-0.435
49.78125,-0.445
49.7890625,-0.415
49.796875,-0.445
49.8046875,-0.455
49.8125,-0.445
49.8203125,-0.455
49.828125,-0.405
49.8359375,-0.425
49.84375,-0.425
49.8515625,-0.395
49.859375,-0.375
49.8671875,-0.365
49.875,-0.315
49.8828125,-0.265
49.890625,-0.285
49.8984375,-0.275
49.90625,-0.295
49.9140625,-0.315
49.921875,-0.375
49.9296875,-0.455
49.9375,-0.525
49.9453125,-0.565
49.953125,-0.565
49.9609375,-0.585
49.96875,-0.565
49.9765625,-0.755
49.984375,-1.065
49.9921875,-0.955
50,-0.215
50.0078125,0.555
50.015625,0.395
50.0234375,-0.275
50.03125,-0.685
50.0390625,-0.685
50.046875,-0.655
50.0546875,-0.585
50.0625,-0.545
50.0703125,-0.535
50.078125,-0.565
50.0859375,-0.545
50.09375,-0.525
50.1015625,-0.525
50.109375,-0.465
50.1171875,-0.475
50.125,-0.485
50.1328125,-0.465
50.140625,-0.435
50.1484375,-0.425
50.15625,-0.395
50.1640625,-0.385
50.171875,-0.325
50.1796875,-0.275
50.1875,-0.205
50.1953125,-0.135
50.203125,-0.115
50.2109375,-0.095
50.21875,-0.105
50.2265625,-0.055
50.234375,-0.035
50.2421875,-0.085
50.25,-0.125
50.2578125,-0.185
50.265625,-0.275
50.2734375,-0.325
50.28125,-0.335
50.2890625,-0.385
50.296875,-0.385
50.3046875,-0.395
50.3125,-0.405
50.3203125,-0.445
50.328125,-0.375
50.3359375,-0.385
50.34375,-0.325
50.3515625,-0.295
50.359375,-0.295
50.3671875,-0.265
50.375,-0.235
50.3828125,-0.155
50.390625,-0.185
50.3984375,-0.155
50.40625,-0.165
50.4140625,-0.155
50.421875,-0.175
50.4296875,-0.295
50.4375,-0.325
50.4453125,-0.385
50.453125,-0.435
50.4609375,-0.415
50.46875,-0.395
50.4765625,-0.435
50.484375,-0.825
50.4921875,-0.905
50.5,-0.365
50.5078125,0.465
50.515625,0.715
50.5234375,0.065
50.53125,-0.415
50.5390625,-0.495
50.546875,-0.445
50.5546875,-0.395
50.5625,-0.375
50.5703125,-0.325
50.578125,-0.335
50.5859375,-0.335
50.59375,-0.315
50.6015625,-0.315
50.609375,-0.305
50.6171875,-0.335
50.625,-0.295
50.6328125,-0.265
50.640625,-0.245
50.6484375,-0.215
50.65625,-0.205
50.6640625,-0.195
50.671875,-0.165
50.6796875,-0.145
50.6875,-0.085
50.6953125,-0.075
50.703125,-0.045
50.7109375,0.005
50.71875,0.075
50.7265625,0.085
50.734375,0.105
50.7421875,0.115
50.75,0.065
50.7578125,0.075
50.765625,-0.005
50.7734375,-0.025
50.78125,-0.105
50.7890625,-0.155
50.796875,-0.165
50.8046875,-0.185
50.8125,-0.215
50.8203125,-0.215
50.828125,-0.235
50.8359375,-0.265
50.84375,-0.215
50.8515625,-0.165
50.859375,-0.125
50.8671875,-0.125
50.875,-0.125
50.8828125,-0.065
50.890625,-0.015
50.8984375,-0.015
50.90625,0.035
50.9140625,-0.015
50.921875,-0.085
50.9296875,-0.105
50.9375,-0.165
50.9453125,-0.255
50.953125,-0.305
50.9609375,-0.335
50.96875,-0.295
50.9765625,-0.265
50.984375,-0.395
50.9921875,-0.755
51,-0.745
51.0078125,-0.105
51.015625,0.705
51.0234375,0.495
51.03125,-0.135
51.0390625,-0.425
51.046875,-0.405
51.0546875,-0.335
51.0625,-0.285
51.0703125,-0.295
51.078125,-0.295
51.0859375,-0.265
51.09375,-0.275
51.1015625,-0.235
51.109375,-0.235
51.1171875,-0.215
51.125,-0.235
51.1328125,-0.205
51.140625,-0.195
51.1484375,-0.165
51.15625,-0.145
51.1640625,-0.125
51.171875,-0.125
51.1796875,-0.105
51.1875,-0.045
51.1953125,-0.005
51.203125,0.015
51.2109375,0.075
51.21875,0.105
51.2265625,0.115
51.234375,0.135
51.2421875,0.125
51.25,0.125
51.2578125,0.065
51.265625,0.015
51.2734375,-0.045
51.28125,-0.075
51.2890625,-0.105
51.296875,-0.145
51.3046875,-0.155
51.3125,-0.175
51.3203125,-0.185
51.328125,-0.185
51.3359375,-0.175
51.34375,-0.195
51.3515625,-0.155
51.359375,-0.105
51.3671875,-0.095
51.375,-0.075
51.3828125,-0.025
51.390625,0.025
51.3984375,-0.005
51.40625,0.045
51.4140625,0.015
51.421875,-0.035
51.4296875,-0.085
51.4375,-0.155
51.4453125,-0.215
51.453125,-0.275
51.4609375,-0.305
51.46875,-0.275
51.4765625,-0.255
51.484375,-0.255
51.4921875,-0.475
51.5,-0.755
51.5078125,-0.475
51.515625,0.295
51.5234375,0.675
51.53125,0.135
51.5390625,-0.355
51.546875,-0.435
51.5546875,-0.405
51.5625,-0.315
51.5703125,-0.265
51.578125,-0.255
51.5859375,-0.275
51.59375,-0.255
51.6015625,-0.215
51.609375,-0.245
51.6171875,-0.265
51.625,-0.215
51.6328125,-0.205
51.640625,-0.215
51.6484375,-0.215
51.65625,-0.175
51.6640625,-0.145
51.671875,-0.125
51.6796875,-0.115
51.6875,-0.075
51.6953125,-0.025
51.703125,0.005
51.7109375,0.035
51.71875,0.065
51.7265625,0.115
51.734375,0.105
51.7421875,0.075
51.75,0.105
51.7578125,0.115
51.765625,0.025
51.7734375,-0.055
51.78125,-0.145
51.7890625,-0.205
51.796875,-0.225
51.8046875,-0.255
51.8125,-0.265
51.8203125,-0.305
51.828125,-0.285
51.8359375,-0.265
51.84375,-0.295
51.8515625,-0.225
51.859375,-0.205
51.8671875,-0.205
51.875,-0.205
51.8828125,-0.155
51.890625,-0.045
51.8984375,-0.085
51.90625,-0.075
51.9140625,-0.075
51.921875,-0.115
51.9296875,-0.155
51.9375,-0.255
51.9453125,-0.315
51.953125,-0.355
51.9609375,-0.365
51.96875,-0.375
51.9765625,-0.365
51.984375,-0.515
51.9921875,-0.825
52,-0.705
52.0078125,0.045
52.015625,0.715
52.0234375,0.335
52.03125,-0.195
52.0390625,-0.515
52.046875,-0.565
52.0546875,-0.455
52.0625,-0.365
52.0703125,-0.335
52.078125,-0.315
52.0859375,-0.335
52.09375,-0.315
52.1015625,-0.315
52.109375,-0.315
52.1171875,-0.295
52.125,-0.295
52.1328125,-0.295
52.140625,-0.295
52.1484375,-0.265
52.15625,-0.225
52.1640625,-0.215
52.171875,-0.175
52.1796875,-0.155
52.1875,-0.115
52.1953125,-0.075
52.203125,-0.005
52.2109375,0.015
52.21875,0.065
52.2265625,0.115
52.234375,0.165
52.2421875,0.175
52.25,0.135
52.2578125,0.105
52.265625,0.035
52.2734375,-0.045
52.28125,-0.075
52.2890625,-0.115
52.296875,-0.135
52.3046875,-0.145
52.3125,-0.175
52.3203125,-0.195
52.328125,-0.185
52.3359375,-0.165
52.34375,-0.175
52.3515625,-0.115
52.359375,-0.095
52.3671875,-0.055
52.375,-0.025
52.3828125,0.015
52.390625,0.095
52.3984375,0.115
52.40625,0.125
52.4140625,0.095
52.421875,0.075
52.4296875,0.055
52.4375,-0.015
52.4453125,-0.095
52.453125,-0.125
52.4609375,-0.145
52.46875,-0.145
52.4765625,-0.115
52.484375,-0.205
52.4921875,-0.615
52.5,-0.605
52.5078125,0.035
52.515625,0.885
52.5234375,0.975
52.53125,0.285
52.5390625,-0.235
52.546875,-0.285
52.5546875,-0.205
52.5625,-0.145
52.5703125,-0.065
52.578125,-0.075
52.5859375,-0.055
52.59375,-0.065
52.6015625,-0.055
52.609375,-0.005
52.6171875,0.005
52.625,0.015
52.6328125,0.025
52.640625,0.025
52.6484375,0.045
52.65625,0.085
52.6640625,0.125
52.671875,0.185
52.6796875,0.245
52.6875,0.265
52.6953125,0.285
52.703125,0.325
52.7109375,0.395
52.71875,0.455
52.7265625,0.495
52.734375,0.515
52.7421875,0.525
52.75,0.525
52.7578125,0.455
52.765625,0.395
52.7734375,0.335
52.78125,0.275
52.7890625,0.275
52.796875,0.265
52.8046875,0.245
52.8125,0.225
52.8203125,0.215
52.828125,0.225
52.8359375,0.235
52.84375,0.255
52.8515625,0.345
52.859375,0.315
52.8671875,0.345
52.875,0.395
52.8828125,0.445
52.890625,0.495
52.8984375,0.485
52.90625,0.525
52.9140625,0.525
52.921875,0.455
52.9296875,0.435
52.9375,0.355
52.9453125,0.285
52.953125,0.225
52.9609375,0.235
52.96875,0.235
52.9765625,0.255
52.984375,0.115
52.9921875,-0.255
53,-0.245
53.0078125,0.305
53.015625,1.105
53.0234375,1.295
53.03125,0.655
53.0390625,0.165
53.046875,0.055
53.0546875,0.115
53.0625,0.175
53.0703125,0.235
53.078125,0.205
53.0859375,0.235
53.09375,0.235
53.1015625,0.265
53.109375,0.295
53.1171875,0.285
53.125,0.305
53.1328125,0.315
53.140625,0.315
53.1484375,0.345
53.15625,0.345
53.1640625,0.395
53.171875,0.415
53.1796875,0.435
53.1875,0.465
53.1953125,0.495
53.203125,0.555
53.2109375,0.615
53.21875,0.655
53.2265625,0.685
53.234375,0.715
53.2421875,0.705
53.25,0.705
53.2578125,0.635
53.265625,0.575
53.2734375,0.485
53.28125,0.445
53.2890625,0.415
53.296875,0.395
53.3046875,0.355
53.3125,0.345
53.3203125,0.325
53.328125,0.345
53.3359375,0.345
53.34375,0.335
53.3515625,0.385
53.359375,0.385
53.3671875,0.405
53.375,0.405
53.3828125,0.435
53.390625,0.485
53.3984375,0.515
53.40625,0.545
53.4140625,0.525
53.421875,0.475
53.4296875,0.415
53.4375,0.345
53.4453125,0.265
53.453125,0.195
53.4609375,0.195
53.46875,0.195
53.4765625,0.205
53.484375,0.015
53.4921875,-0.295
53.5,-0.125
53.5078125,0.585
53.515625,1.285
53.5234375,1.005
53.53125,0.395
53.5390625,0.045
53.546875,0.005
53.5546875,0.035
53.5625,0.115
53.5703125,0.135
53.578125,0.145
53.5859375,0.165
53.59375,0.165
53.6015625,0.195
53.609375,0.185
53.6171875,0.185
53.625,0.185
53.6328125,0.155
53.640625,0.185
53.6484375,0.225
53.65625,0.245
53.6640625,0.255
53.671875,0.295
53.6796875,0.285
53.6875,0.315
53.6953125,0.365
53.703125,0.395
53.7109375,0.445
53.71875,0.485
53.7265625,0.495
53.734375,0.545
53.7421875,0.555
53.75,0.545
53.7578125,0.515
53.765625,0.475
53.7734375,0.385
53.78125,0.325
53.7890625,0.275
53.796875,0.195
53.8046875,0.225
53.8125,0.215
53.8203125,0.205
53.828125,0.175
53.8359375,0.185
53.84375,0.185
53.8515625,0.215
53.859375,0.245
53.8671875,0.235
53.875,0.265
53.8828125,0.295
53.890625,0.335
53.8984375,0.325
53.90625,0.355
53.9140625,0.335
53.921875,0.295
53.9296875,0.245
53.9375,0.155
53.9453125,0.075
53.953125,-0.005
53.9609375,0.005
53.96875,0.045
53.9765625,0.065
53.984375,-0.105
53.9921875,-0.525
54,-0.505
54.0078125,0.125
54.015625,1.045
54.0234375,0.875
54.03125,0.085
54.0390625,-0.235
54.046875,-0.175
54.0546875,-0.105
54.0625,-0.065
54.0703125,-0.075
54.078125,-0.065
54.0859375,-0.105
54.09375,-0.075
54.1015625,-0.055
54.109375,-0.065
54.1171875,-0.065
54.125,-0.085
54.1328125,-0.055
54.140625,-0.025
54.1484375,-0.015
54.15625,-0.035
54.1640625,0.035
54.171875,0.055
54.1796875,0.095
54.1875,0.125
54.1953125,0.145
54.203125,0.205
54.2109375,0.245
54.21875,0.265
54.2265625,0.255
54.234375,0.265
54.2421875,0.305
54.25,0.295
54.2578125,0.235
54.265625,0.125
54.2734375,0.045
54.28125,0.015
54.2890625,0.005
54.296875,-0.075
54.3046875,-0.105
54.3125,-0.075
54.3203125,-0.075
54.328125,-0.075
54.3359375,-0.045
54.34375,-0.085
54.3515625,-0.045
54.359375,-0.045
54.3671875,-0.015
54.375,-0.005
54.3828125,0.005
54.390625,0.055
54.3984375,0.055
54.40625,0.045
54.4140625,0.065
54.421875,0.045
54.4296875,-0.015
54.4375,-0.075
54.4453125,-0.135
54.453125,-0.225
54.4609375,-0.245
54.46875,-0.275
54.4765625,-0.225
54.484375,-0.245
54.4921875,-0.425
54.5,-0.745
54.5078125,-0.675
54.515625,-0.025
54.5234375,0.655
54.53125,0.435
54.5390625,-0.135
54.546875,-0.425
54.5546875,-0.435
54.5625,-0.425
54.5703125,-0.325
54.578125,-0.335
54.5859375,-0.325
54.59375,-0.345
54.6015625,-0.305
54.609375,-0.325
54.6171875,-0.325
54.625,-0.325
54.6328125,-0.305
54.640625,-0.305
54.6484375,-0.295
54.65625,-0.265
54.6640625,-0.235
54.671875,-0.165
54.6796875,-0.175
54.6875,-0.145
54.6953125,-0.125
54.703125,-0.075
54.7109375,-0.065
54.71875,-0.025
54.7265625,0.025
54.734375,0.065
54.7421875,0.085
54.75,0.055
54.7578125,0.075
54.765625,-0.005
54.7734375,-0.065
54.78125,-0.135
54.7890625,-0.195
54.796875,-0.255
54.8046875,-0.265
54.8125,-0.315
54.8203125,-0.305
54.828125,-0.305
54.8359375,-0.315
54.84375,-0.375
54.8515625,-0.315
54.859375,-0.305
54.8671875,-0.375
54.875,-0.355
54.8828125,-0.295
54.890625,-0.315
54.8984375,-0.275
54.90625,-0.215
54.9140625,-0.185
54.921875,-0.235
54.9296875,-0.215
54.9375,-0.235
54.9453125,-0.285
54.953125,-0.345
54.9609375,-0.415
54.96875,-0.455
54.9765625,-0.535
54.984375,-0.505
54.9921875,-0.505
55,-0.545
55.0078125,-0.855
55.015625,-1.005
55.0234375,-0.705
55.03125,0.015
55.0390625,0.515
55.046875,0.175
55.0546875,-0.365
55.0625,-0.605
55.0703125,-0.715
55.078125,-0.685
55.0859375,-0.555
55.09375,-0.545
55.1015625,-0.545
55.109375,-0.555
55.1171875,-0.495
55.125,-0.465
55.1328125,-0.475
55.140625,-0.495
55.1484375,-0.475
55.15625,-0.485
55.1640625,-0.445
55.171875,-0.455
55.1796875,-0.455
55.1875,-0.375
55.1953125,-0.345
55.203125,-0.325
55.2109375,-0.265
55.21875,-0.205
55.2265625,-0.185
55.234375,-0.125
55.2421875,-0.095
55.25,-0.065
55.2578125,-0.045
55.265625,-0.065
55.2734375,-0.065
55.28125,-0.155
55.2890625,-0.175
55.296875,-0.255
55.3046875,-0.325
55.3125,-0.345
55.3203125,-0.385
55.328125,-0.375
55.3359375,-0.375
55.34375,-0.425
55.3515625,-0.425
55.359375,-0.445
55.3671875,-0.365
55.375,-0.365
55.3828125,-0.345
55.390625,-0.295
55.3984375,-0.245
55.40625,-0.245
55.4140625,-0.225
55.421875,-0.225
55.4296875,-0.125
55.4375,-0.155
55.4453125,-0.195
55.453125,-0.205
55.4609375,-0.235
55.46875,-0.255
55.4765625,-0.305
55.484375,-0.435
55.4921875,-0.515
55.5,-0.485
55.5078125,-0.485
55.515625,-0.435
55.5234375,-0.425
55.53125,-0.765
55.5390625,-0.975
55.546875,-0.655
55.5546875,0.155
55.5625,0.725
55.5703125,0.195
55.578125,-0.395
55.5859375,-0.645
55.59375,-0.605
55.6015625,-0.535
55.609375,-0.475
55.6171875,-0.445
55.625,-0.485
55.6328125,-0.455
55.640625,-0.465
55.6484375,-0.455
55.65625,-0.535
55.6640625,-0.405
55.671875,-0.375
55.6796875,-0.335
55.6875,-0.305
55.6953125,-0.315
55.703125,-0.265
55.7109375,-0.235
55.71875,-0.205
55.7265625,-0.165
55.734375,-0.165
55.7421875,-0.135
55.75,-0.085
55.7578125,-0.075
55.765625,-0.025
55.7734375,-0.005
55.78125,0.015
55.7890625,0.025
55.796875,-0.015
55.8046875,-0.015
55.8125,-0.115
55.8203125,-0.185
55.828125,-0.285
55.8359375,-0.295
55.84375,-0.255
55.8515625,-0.225
55.859375,-0.275
55.8671875,-0.315
55.875,-0.275
55.8828125,-0.275
55.890625,-0.285
55.8984375,-0.305
55.90625,-0.315
55.9140625,-0.295
55.921875,-0.255
55.9296875,-0.235
55.9375,-0.215
55.9453125,-0.195
55.953125,-0.185
55.9609375,-0.135
55.96875,-0.115
55.9765625,-0.105
55.984375,-0.125
55.9921875,-0.155
56,-0.115
56.0078125,-0.185
56.015625,-0.275
56.0234375,-0.365
56.03125,-0.395
56.0390625,-0.405
56.046875,-0.375
56.0546875,-0.395
56.0625,-0.655
56.0703125,-0.965
56.078125,-0.835
56.0859375,-0.065
56.09375,0.675
56.1015625,0.375
56.109375,-0.425
56.1171875,-0.665
56.125,-0.575
56.1328125,-0.475
56.140625,-0.425
56.1484375,-0.415
56.15625,-0.465
56.1640625,-0.455
56.171875,-0.495
56.1796875,-0.365
56.1875,-0.355
56.1953125,-0.325
56.203125,-0.385
56.2109375,-0.385
56.21875,-0.305
56.2265625,-0.295
56.234375,-0.265
56.2421875,-0.255
56.25,-0.225
56.2578125,-0.185
56.265625,-0.135
56.2734375,-0.145
56.28125,-0.035
56.2890625,0.015
56.296875,0.045
56.3046875,0.085
56.3125,0.125
56.3203125,0.145
56.328125,0.095
56.3359375,0.075
56.34375,0.025
56.3515625,-0.025
56.359375,-0.075
56.3671875,-0.135
56.375,-0.155
56.3828125,-0.215
56.390625,-0.215
56.3984375,-0.245
56.40625,-0.225
56.4140625,-0.215
56.421875,-0.195
56.4296875,-0.165
56.4375,-0.155
56.4453125,-0.125
56.453125,-0.225
56.4609375,-0.185
56.46875,-0.155
56.4765625,-0.105
56.484375,-0.105
56.4921875,-0.105
56.5,-0.025
56.5078125,-0.025
56.515625,-0.025
56.5234375,-0.015
56.53125,-0.075
56.5390625,-0.115
56.546875,-0.185
56.5546875,-0.205
56.5625,-0.245
56.5703125,-0.285
56.578125,-0.295
56.5859375,-0.255
56.59375,-0.255
56.6015625,-0.435
56.609375,-0.665
56.6171875,-0.575
56.625,0.125
56.6328125,0.785
56.640625,0.575
56.6484375,0.025
56.65625,-0.325
56.6640625,-0.355
56.671875,-0.335
56.6796875,-0.245
56.6875,-0.205
56.6953125,-0.235
56.703125,-0.265
56.7109375,-0.235
56.71875,-0.205
56.7265625,-0.205
56.734375,-0.185
56.7421875,-0.125
56.75,-0.135
56.7578125,-0.135
56.765625,-0.155
56.7734375,-0.175
56.78125,-0.105
56.7890625,0.055
56.796875,0.075
56.8046875,0.055
56.8125,0.135
56.8203125,0.165
56.828125,0.245
56.8359375,0.245
56.84375,0.315
56.8515625,0.365
56.859375,0.325
56.8671875,0.315
56.875,0.255
56.8828125,0.215
56.890625,0.165
56.8984375,0.105
56.90625,0.005
56.9140625,0.015
56.921875,-0.015
56.9296875,0.005
56.9375,-0.005
56.9453125,-0.005
56.953125,-0.005
56.9609375,0.005
56.96875,0.005
56.9765625,0.035
56.984375,0.065
56.9921875,0.055
57,0.035
57.0078125,0.065
57.015625,0.095
57.0234375,0.105
57.03125,0.145
57.0390625,0.175
57.046875,0.205
57.0546875,0.215
57.0625,0.265
57.0703125,0.265
57.078125,0.285
57.0859375,0.275
