Time,Signal_uV
0,-0.185
0.0078125,-0.105
0.015625,-0.145
0.0234375,-0.145
0.03125,-0.155
0.0390625,-0.175
0.046875,-0.165
0.0546875,-0.115
0.0625,-0.045
0.0703125,-0.095
0.078125,-0.135
0.0859375,-0.095
0.09375,-0.065
0.1015625,-0.105
0.109375,-0.105
0.1171875,-0.035
0.125,-0.025
0.1328125,-0.015
0.140625,-0.015
0.1484375,-0.045
0.15625,-0.025
0.1640625,0.025
0.171875,0.005
0.1796875,0.025
0.1875,-0.055
0.1953125,-0.095
0.203125,-0.255
0.2109375,-0.245
0.21875,-0.285
0.2265625,-0.285
0.234375,-0.275
0.2421875,-0.275
0.25,-0.255
0.2578125,-0.365
0.265625,-0.305
0.2734375,-0.235
0.28125,-0.305
0.2890625,-0.535
0.296875,0.035
0.3046875,1.155
0.3125,2.015
0.3203125,1.585
0.328125,-0.055
0.3359375,-0.765
0.34375,-0.705
0.3515625,-0.475
0.359375,-0.435
0.3671875,-0.435
0.375,-0.495
0.3828125,-0.465
0.390625,-0.385
0.3984375,-0.335
0.40625,-0.295
0.4140625,-0.375
0.421875,-0.355
0.4296875,-0.335
0.4375,-0.395
0.4453125,-0.345
0.453125,-0.315
0.4609375,-0.285
0.46875,-0.235
0.4765625,-0.255
0.484375,-0.255
0.4921875,-0.155
0.5,-0.055
0.5078125,-0.115
0.515625,-0.125
0.5234375,-0.265
0.53125,-0.015
0.5390625,0.135
0.546875,-0.065
0.5546875,0.015
0.5625,0.115
0.5703125,-0.015
0.578125,-0.245
0.5859375,-0.355
0.59375,-0.325
0.6015625,-0.345
0.609375,-0.455
0.6171875,-0.405
0.625,-0.375
0.6328125,-0.325
0.640625,-0.315
0.6484375,-0.415
0.65625,-0.335
0.6640625,-0.235
0.671875,-0.285
0.6796875,-0.335
0.6875,-0.235
0.6953125,-0.335
0.703125,-0.285
0.7109375,-0.205
0.71875,-0.165
0.7265625,-0.095
0.734375,-0.205
0.7421875,-0.255
0.75,-0.195
0.7578125,-0.045
0.765625,-0.115
0.7734375,-0.095
0.78125,-0.205
0.7890625,-0.325
0.796875,-0.445
0.8046875,-0.375
0.8125,-0.395
0.8203125,-0.485
0.828125,-0.505
0.8359375,-0.445
0.84375,-0.405
0.8515625,-0.355
0.859375,-0.315
0.8671875,-0.255
0.875,-0.315
0.8828125,-0.375
0.890625,0.435
0.8984375,1.585
0.90625,2.125
0.9140625,1.335
0.921875,-0.215
0.9296875,-0.585
0.9375,-0.425
0.9453125,-0.325
0.953125,-0.275
0.9609375,-0.285
0.96875,-0.325
0.9765625,-0.355
0.984375,-0.265
0.9921875,-0.285
1,-0.275
1.0078125,-0.315
1.015625,-0.265
1.0234375,-0.275
1.03125,-0.255
1.0390625,-0.275
1.046875,-0.295
1.0546875,-0.205
1.0625,-0.175
1.0703125,-0.205
1.078125,-0.225
1.0859375,-0.245
1.09375,-0.055
1.1015625,0.015
1.109375,-0.045
1.1171875,-0.005
1.125,0.055
1.1328125,0.085
1.140625,0.075
1.1484375,0.045
1.15625,0.055
1.1640625,-0.135
1.171875,-0.185
1.1796875,-0.195
1.1875,-0.205
1.1953125,-0.255
1.203125,-0.285
1.2109375,-0.295
1.21875,-0.235
1.2265625,-0.305
1.234375,-0.285
1.2421875,-0.275
1.25,-0.215
1.2578125,-0.175
1.265625,-0.205
1.2734375,-0.255
1.28125,-0.285
1.2890625,-0.195
1.296875,-0.025
1.3046875,-0.025
1.3125,-0.135
1.3203125,-0.025
1.328125,-0.065
1.3359375,-0.165
1.34375,-0.085
1.3515625,-0.095
1.359375,-0.135
1.3671875,-0.255
1.375,-0.235
1.3828125,-0.255
1.390625,-0.415
1.3984375,-0.565
1.40625,-0.395
1.4140625,-0.345
1.421875,-0.405
1.4296875,-0.435
1.4375,-0.375
1.4453125,-0.435
1.453125,-0.685
1.4609375,-0.535
1.46875,0.785
1.4765625,1.835
1.484375,2.055
1.4921875,0.275
1.5,-0.745
1.5078125,-0.645
1.515625,-0.405
1.5234375,-0.395
1.53125,-0.375
1.5390625,-0.305
1.546875,-0.195
1.5546875,-0.285
1.5625,-0.265
1.5703125,-0.245
1.578125,-0.205
1.5859375,-0.175
1.59375,-0.155
1.6015625,-0.145
1.609375,-0.095
1.6171875,-0.095
1.625,-0.065
1.6328125,-0.025
1.640625,-0.015
1.6484375,-0.035
1.65625,0.045
1.6640625,0.145
1.671875,0.145
1.6796875,0.165
1.6875,0.205
1.6953125,0.245
1.703125,0.135
1.7109375,0.285
1.71875,0.305
1.7265625,0.235
1.734375,0.175
1.7421875,0.145
1.75,0.105
1.7578125,0.025
1.765625,0.015
1.7734375,0.015
1.78125,0.065
1.7890625,-0.015
1.796875,-0.045
1.8046875,-0.045
1.8125,-0.065
1.8203125,0.055
1.828125,0.085
1.8359375,-0.015
1.84375,0.015
1.8515625,0.095
1.859375,0.115
1.8671875,0.165
1.875,0.185
1.8828125,0.155
1.890625,0.075
1.8984375,0.035
1.90625,0.185
1.9140625,0.095
1.921875,0.125
1.9296875,0.105
1.9375,-0.005
1.9453125,-0.005
1.953125,-0.065
1.9609375,-0.095
1.96875,-0.085
1.9765625,-0.155
1.984375,-0.075
1.9921875,-0.035
2,-0.145
2.0078125,-0.075
2.015625,-0.065
2.0234375,-0.225
2.03125,-0.365
2.0390625,0.315
2.046875,1.415
2.0546875,2.225
2.0625,1.365
2.0703125,-0.095
2.078125,-0.395
2.0859375,-0.265
2.09375,-0.065
2.1015625,-0.035
2.109375,-0.085
2.1171875,0.145
2.125,-0.035
2.1328125,-0.065
2.140625,-0.015
2.1484375,0.025
2.15625,0.045
2.1640625,0.055
2.171875,0.065
2.1796875,0.085
2.1875,0.125
2.1953125,0.145
2.203125,0.165
2.2109375,0.185
2.21875,0.205
2.2265625,0.235
2.234375,0.245
2.2421875,0.275
2.25,0.315
2.2578125,0.345
2.265625,0.355
2.2734375,0.345
2.28125,0.355
2.2890625,0.355
2.296875,0.345
2.3046875,0.315
2.3125,0.315
2.3203125,0.265
2.328125,0.225
2.3359375,0.205
2.34375,0.185
2.3515625,0.155
2.359375,0.155
2.3671875,0.145
2.375,0.155
2.3828125,0.145
2.390625,0.115
2.3984375,0.155
2.40625,0.165
2.4140625,0.165
2.421875,0.185
2.4296875,0.265
2.4375,0.265
2.4453125,0.295
2.453125,0.295
2.4609375,0.235
2.46875,0.235
2.4765625,0.205
2.484375,0.165
2.4921875,0.145
2.5,0.085
2.5078125,0.005
2.515625,-0.015
2.5234375,-0.065
2.53125,-0.085
2.5390625,-0.095
2.546875,-0.105
2.5546875,-0.115
2.5625,-0.095
2.5703125,-0.045
2.578125,-0.005
2.5859375,-0.015
2.59375,-0.135
2.6015625,-0.225
2.609375,0.555
2.6171875,1.645
2.625,2.185
2.6328125,1.095
2.640625,-0.245
2.6484375,-0.455
2.65625,-0.235
2.6640625,-0.085
2.671875,-0.095
2.6796875,-0.095
2.6875,-0.075
2.6953125,-0.035
2.703125,-0.095
2.7109375,-0.095
2.71875,-0.085
2.7265625,-0.035
2.734375,-0.065
2.7421875,-0.045
2.75,-0.025
2.7578125,-0.005
2.765625,-0.005
2.7734375,-0.005
2.78125,0.015
2.7890625,0.055
2.796875,0.075
2.8046875,0.085
2.8125,0.105
2.8203125,0.155
2.828125,0.215
2.8359375,0.235
2.84375,0.255
2.8515625,0.245
2.859375,0.195
2.8671875,0.165
2.875,0.125
2.8828125,0.035
2.890625,-0.015
2.8984375,-0.135
2.90625,0.025
2.9140625,-0.125
2.921875,-0.205
2.9296875,-0.185
2.9375,-0.175
2.9453125,-0.185
2.953125,-0.175
2.9609375,-0.135
2.96875,-0.125
2.9765625,-0.145
2.984375,-0.125
2.9921875,-0.055
3,-0.005
3.0078125,-0.015
3.015625,-0.035
3.0234375,-0.065
3.03125,-0.085
3.0390625,-0.035
3.046875,-0.045
3.0546875,-0.065
3.0625,-0.155
3.0703125,-0.235
3.078125,-0.285
3.0859375,-0.325
3.09375,-0.345
3.1015625,-0.375
3.109375,-0.385
3.1171875,-0.375
3.125,-0.365
3.1328125,-0.405
3.140625,-0.425
3.1484375,-0.385
3.15625,-0.485
3.1640625,-0.715
3.171875,-0.105
3.1796875,1.115
3.1875,1.975
3.1953125,1.385
3.203125,-0.405
3.2109375,-0.905
3.21875,-0.785
3.2265625,-0.605
3.234375,-0.515
3.2421875,-0.505
3.25,-0.485
3.2578125,-0.485
3.265625,-0.475
3.2734375,-0.445
3.28125,-0.435
3.2890625,-0.435
3.296875,-0.455
3.3046875,-0.465
3.3125,-0.455
3.3203125,-0.435
3.328125,-0.425
3.3359375,-0.415
3.34375,-0.415
3.3515625,-0.385
3.359375,-0.345
3.3671875,-0.325
3.375,-0.255
3.3828125,-0.225
3.390625,-0.175
3.3984375,-0.125
3.40625,-0.085
3.4140625,-0.085
3.421875,-0.105
3.4296875,-0.145
3.4375,-0.205
3.4453125,-0.275
3.453125,-0.365
3.4609375,-0.405
3.46875,-0.435
3.4765625,-0.445
3.484375,-0.455
3.4921875,-0.455
3.5,-0.455
3.5078125,-0.485
3.515625,-0.435
3.5234375,-0.455
3.53125,-0.465
3.5390625,-0.465
3.546875,-0.425
3.5546875,-0.395
3.5625,-0.385
3.5703125,-0.305
3.578125,-0.315
3.5859375,-0.295
3.59375,-0.245
3.6015625,-0.195
3.609375,-0.235
3.6171875,-0.215
3.625,-0.315
3.6328125,-0.365
3.640625,-0.375
3.6484375,-0.395
3.65625,-0.405
3.6640625,-0.395
3.671875,-0.375
3.6796875,-0.365
3.6875,-0.335
3.6953125,-0.335
3.703125,-0.295
3.7109375,-0.305
3.71875,-0.565
3.7265625,-0.335
3.734375,0.745
3.7421875,1.875
3.75,2.185
3.7578125,0.405
3.765625,-0.645
3.7734375,-0.615
3.78125,-0.385
3.7890625,-0.255
3.796875,-0.225
3.8046875,-0.215
3.8125,-0.225
3.8203125,-0.225
3.828125,-0.215
3.8359375,-0.185
3.84375,-0.175
3.8515625,-0.185
3.859375,-0.165
3.8671875,-0.185
3.875,-0.165
3.8828125,-0.135
3.890625,-0.125
3.8984375,-0.105
3.90625,-0.095
3.9140625,-0.055
3.921875,-0.035
3.9296875,0.015
3.9375,0.065
3.9453125,0.105
3.953125,0.135
3.9609375,0.165
3.96875,0.175
3.9765625,0.165
3.984375,0.165
3.9921875,0.105
4,0.045
4.0078125,-0.015
4.015625,-0.065
4.0234375,-0.105
4.03125,-0.105
4.0390625,-0.125
4.046875,-0.135
4.0546875,-0.135
4.0625,-0.145
4.0703125,-0.135
4.078125,-0.135
4.0859375,-0.135
4.09375,-0.125
4.1015625,-0.105
4.109375,-0.105
4.1171875,-0.085
4.125,-0.075
4.1328125,-0.055
4.140625,0.015
4.1484375,0.045
4.15625,0.065
4.1640625,0.065
4.171875,0.045
4.1796875,0.075
4.1875,0.145
4.1953125,0.125
4.203125,0.085
4.2109375,0.025
4.21875,-0.025
4.2265625,-0.075
4.234375,-0.105
4.2421875,-0.145
4.25,-0.165
4.2578125,-0.165
4.265625,-0.155
4.2734375,-0.165
4.28125,-0.155
4.2890625,-0.155
4.296875,-0.095
4.3046875,-0.235
4.3125,-0.365
4.3203125,0.425
4.328125,1.565
4.3359375,2.305
4.34375,1.515
4.3515625,-0.275
4.359375,-0.615
4.3671875,-0.375
4.375,-0.205
4.3828125,-0.185
4.390625,-0.185
4.3984375,-0.155
4.40625,-0.155
4.4140625,-0.145
4.421875,-0.135
4.4296875,-0.145
4.4375,-0.125
4.4453125,-0.125
4.453125,-0.125
4.4609375,-0.115
4.46875,-0.105
4.4765625,-0.085
4.484375,-0.075
4.4921875,-0.055
4.5,-0.025
4.5078125,0.005
4.515625,0.035
4.5234375,0.065
4.53125,0.115
4.5390625,0.155
4.546875,0.175
4.5546875,0.195
4.5625,0.215
4.5703125,0.205
4.578125,0.185
4.5859375,0.125
4.59375,0.075
4.6015625,0.005
4.609375,-0.035
4.6171875,-0.075
4.625,-0.095
4.6328125,-0.115
4.640625,-0.125
4.6484375,-0.115
4.65625,-0.095
4.6640625,-0.085
4.671875,-0.115
4.6796875,-0.095
4.6875,-0.095
4.6953125,-0.095
4.703125,-0.135
4.7109375,-0.085
4.71875,-0.095
4.7265625,-0.105
4.734375,-0.095
4.7421875,-0.105
4.75,-0.095
4.7578125,-0.095
4.765625,-0.105
4.7734375,-0.075
4.78125,-0.055
4.7890625,-0.085
4.796875,-0.075
4.8046875,-0.105
4.8125,-0.095
4.8203125,-0.075
4.828125,-0.135
4.8359375,-0.105
4.84375,-0.155
4.8515625,-0.265
4.859375,-0.305
4.8671875,-0.355
4.875,-0.405
4.8828125,-0.415
4.890625,-0.425
4.8984375,-0.415
4.90625,-0.405
4.9140625,-0.415
4.921875,-0.445
4.9296875,-0.395
4.9375,-0.505
4.9453125,-0.575
4.953125,0.135
4.9609375,1.195
4.96875,1.855
4.9765625,0.845
4.984375,-0.545
4.9921875,-0.845
5,-0.675
5.0078125,-0.515
5.015625,-0.465
5.0234375,-0.445
5.03125,-0.445
5.0390625,-0.445
5.046875,-0.415
5.0546875,-0.415
5.0625,-0.375
5.0703125,-0.355
5.078125,-0.345
5.0859375,-0.365
5.09375,-0.315
5.1015625,-0.305
5.109375,-0.295
5.1171875,-0.255
5.125,-0.195
5.1328125,-0.145
5.140625,-0.175
5.1484375,-0.115
5.15625,-0.035
5.1640625,-0.025
5.171875,0.015
5.1796875,0.055
5.1875,0.095
5.1953125,0.105
5.203125,0.095
5.2109375,0.065
5.21875,0.005
5.2265625,-0.065
5.234375,-0.125
5.2421875,-0.165
5.25,-0.215
5.2578125,-0.225
5.265625,-0.215
5.2734375,-0.205
5.28125,-0.205
5.2890625,-0.205
5.296875,-0.195
5.3046875,-0.195
5.3125,-0.175
5.3203125,-0.195
5.328125,-0.175
5.3359375,-0.175
5.34375,-0.145
5.3515625,-0.115
5.359375,-0.095
5.3671875,-0.095
5.375,-0.065
5.3828125,-0.105
5.390625,-0.095
5.3984375,-0.135
5.40625,-0.105
5.4140625,-0.105
5.421875,-0.095
5.4296875,-0.125
5.4375,-0.135
5.4453125,-0.095
5.453125,-0.155
5.4609375,-0.135
5.46875,-0.025
5.4765625,0.015
5.484375,0.005
5.4921875,-0.035
5.5,-0.055
5.5078125,0.015
5.515625,0.065
5.5234375,0.025
5.53125,0.035
5.5390625,-0.085
5.546875,-0.195
5.5546875,-0.165
5.5625,-0.165
5.5703125,-0.225
5.578125,-0.255
5.5859375,-0.255
5.59375,-0.265
5.6015625,-0.245
5.609375,-0.215
5.6171875,-0.195
5.625,-0.225
5.6328125,-0.405
5.640625,-0.015
5.6484375,1.265
5.65625,2.255
5.6640625,2.315
5.671875,0.315
5.6796875,-0.785
5.6875,-0.585
5.6953125,-0.295
5.703125,-0.255
5.7109375,-0.245
5.71875,-0.225
5.7265625,-0.275
5.734375,-0.155
5.7421875,-0.215
5.75,-0.215
5.7578125,-0.195
5.765625,-0.155
5.7734375,-0.175
5.78125,-0.165
5.7890625,-0.125
5.796875,-0.165
5.8046875,-0.065
5.8125,-0.105
5.8203125,-0.025
5.828125,0.005
5.8359375,-0.045
5.84375,0.085
5.8515625,0.135
5.859375,0.195
5.8671875,0.175
5.875,0.305
5.8828125,0.335
5.890625,0.355
5.8984375,0.335
5.90625,0.265
5.9140625,0.175
5.921875,0.135
5.9296875,0.035
5.9375,-0.015
5.9453125,-0.085
5.953125,-0.085
5.9609375,-0.085
5.96875,-0.125
5.9765625,-0.125
5.984375,-0.115
5.9921875,-0.135
6,-0.095
6.0078125,-0.145
6.015625,-0.065
6.0234375,-0.065
6.03125,-0.105
6.0390625,-0.105
6.046875,-0.085
6.0546875,-0.055
6.0625,-0.105
6.0703125,-0.095
6.078125,-0.025
6.0859375,-0.085
6.09375,-0.035
6.1015625,-0.045
6.109375,-0.005
6.1171875,-0.025
6.125,-0.005
6.1328125,-0.045
6.140625,-0.025
6.1484375,-0.055
6.15625,-0.055
6.1640625,-0.065
6.171875,-0.035
6.1796875,-0.025
6.1875,-0.025
6.1953125,-0.015
6.203125,0.015
6.2109375,-0.005
6.21875,0.005
6.2265625,0.035
6.234375,0.045
6.2421875,0.025
6.25,0.055
6.2578125,0.165
6.265625,0.215
6.2734375,0.265
6.28125,0.155
6.2890625,0.155
6.296875,0.195
6.3046875,0.225
6.3125,0.215
6.3203125,0.225
6.328125,0.195
6.3359375,0.175
6.34375,0.145
6.3515625,0.115
6.359375,0.075
6.3671875,0.085
6.375,0.085
6.3828125,0.095
6.390625,0.105
6.3984375,0.115
6.40625,0.115
6.4140625,0.085
6.421875,0.035
6.4296875,0.455
6.4375,1.235
6.4453125,1.735
6.453125,1.495
6.4609375,0.225
6.46875,-0.225
6.4765625,-0.055
6.484375,0.065
6.4921875,0.075
6.5,0.085
6.5078125,0.085
6.515625,0.085
6.5234375,0.055
6.53125,0.075
6.5390625,0.065
6.546875,0.095
6.5546875,0.085
6.5625,0.095
6.5703125,0.085
6.578125,0.095
6.5859375,0.125
6.59375,0.165
6.6015625,0.105
6.609375,0.115
6.6171875,0.145
6.625,0.165
6.6328125,0.175
6.640625,0.245
6.6484375,0.315
6.65625,0.365
6.6640625,0.385
6.671875,0.445
6.6796875,0.425
6.6875,0.395
6.6953125,0.375
6.703125,0.295
6.7109375,0.235
6.71875,0.145
6.7265625,0.085
6.734375,0.025
6.7421875,-0.015
6.75,-0.065
6.7578125,-0.085
6.765625,-0.075
6.7734375,-0.045
6.78125,-0.055
6.7890625,-0.035
6.796875,-0.075
6.8046875,-0.035
6.8125,-0.065
6.8203125,-0.055
6.828125,-0.115
6.8359375,-0.075
6.84375,-0.045
6.8515625,-0.055
6.859375,-0.015
6.8671875,0.005
6.875,-0.015
6.8828125,0.015
6.890625,-0.005
6.8984375,-0.025
6.90625,-0.005
6.9140625,0.015
6.921875,-0.015
6.9296875,-0.015
6.9375,0.005
6.9453125,0.025
6.953125,0.025
6.9609375,0.025
6.96875,0.045
6.9765625,0.015
6.984375,0.025
6.9921875,0.075
7,0.075
7.0078125,0.075
7.015625,0.105
7.0234375,0.095
7.03125,0.105
7.0390625,0.185
7.046875,0.195
7.0546875,0.205
7.0625,0.195
7.0703125,0.185
7.078125,0.215
7.0859375,0.235
7.09375,0.235
7.1015625,0.235
7.109375,0.165
7.1171875,0.115
7.125,0.125
7.1328125,0.075
7.140625,0.055
7.1484375,0.065
7.15625,0.075
7.1640625,0.055
7.171875,0.075
7.1796875,0.055
7.1875,0.035
7.1953125,-0.075
7.203125,0.085
7.2109375,0.855
7.21875,1.555
7.2265625,1.625
7.234375,0.375
7.2421875,-0.335
7.25,-0.305
7.2578125,-0.115
7.265625,-0.065
7.2734375,-0.065
7.28125,-0.065
7.2890625,-0.025
7.296875,-0.025
7.3046875,-0.045
7.3125,-0.065
7.3203125,-0.045
7.328125,-0.045
7.3359375,-0.025
7.34375,-0.005
7.3515625,-0.005
7.359375,-0.015
7.3671875,0.015
7.375,0.035
7.3828125,0.035
7.390625,0.045
7.3984375,0.065
7.40625,0.125
7.4140625,0.185
7.421875,0.205
7.4296875,0.255
7.4375,0.305
7.4453125,0.255
7.453125,0.325
7.4609375,0.315
7.46875,0.285
7.4765625,0.225
7.484375,0.145
7.4921875,0.075
7.5,0.035
7.5078125,0.005
7.515625,-0.015
7.5234375,-0.065
7.53125,-0.045
7.5390625,-0.055
7.546875,-0.065
7.5546875,-0.065
7.5625,-0.075
7.5703125,-0.095
7.578125,-0.065
7.5859375,-0.075
7.59375,-0.085
7.6015625,-0.095
7.609375,-0.055
7.6171875,-0.075
7.625,-0.065
7.6328125,-0.075
7.640625,-0.065
7.6484375,-0.055
7.65625,-0.055
7.6640625,-0.075
7.671875,-0.065
7.6796875,-0.075
7.6875,-0.025
7.6953125,-0.095
7.703125,-0.105
7.7109375,-0.095
7.71875,-0.105
7.7265625,-0.105
7.734375,-0.125
7.7421875,-0.105
7.75,-0.105
7.7578125,-0.095
7.765625,-0.115
7.7734375,-0.105
7.78125,-0.095
7.7890625,-0.125
7.796875,-0.125
7.8046875,-0.055
7.8125,-0.005
7.8203125,0.025
7.828125,-0.015
7.8359375,-0.025
7.84375,0.025
7.8515625,0.035
7.859375,0.025
7.8671875,-0.035
7.875,-0.085
7.8828125,-0.115
7.890625,-0.195
7.8984375,-0.245
7.90625,-0.235
7.9140625,-0.235
7.921875,-0.245
7.9296875,-0.205
7.9375,-0.185
7.9453125,-0.225
7.953125,-0.235
7.9609375,-0.365
7.96875,0.135
7.9765625,1.175
7.984375,1.985
7.9921875,1.715
8,0.025
8.0078125,-0.725
8.015625,-0.555
8.0234375,-0.335
8.03125,-0.265
8.0390625,-0.245
8.046875,-0.235
8.0546875,-0.255
8.0625,-0.225
8.0703125,-0.205
8.078125,-0.205
8.0859375,-0.225
8.09375,-0.215
8.1015625,-0.165
8.109375,-0.145
8.1171875,-0.145
8.125,-0.145
8.1328125,-0.125
8.140625,-0.085
8.1484375,-0.065
8.15625,-0.085
8.1640625,-0.035
8.171875,0.015
8.1796875,0.075
8.1875,0.125
8.1953125,0.185
8.203125,0.205
8.2109375,0.195
8.21875,0.225
8.2265625,0.235
8.234375,0.165
8.2421875,0.145
8.25,0.055
8.2578125,-0.045
8.265625,-0.095
8.2734375,-0.145
8.28125,-0.165
8.2890625,-0.205
8.296875,-0.215
8.3046875,-0.225
8.3125,-0.225
8.3203125,-0.185
8.328125,-0.245
8.3359375,-0.225
8.34375,-0.215
8.3515625,-0.255
8.359375,-0.205
8.3671875,-0.165
8.375,-0.195
8.3828125,-0.175
8.390625,-0.155
8.3984375,-0.155
8.40625,-0.155
8.4140625,-0.145
8.421875,-0.105
8.4296875,-0.175
8.4375,-0.165
8.4453125,-0.165
8.453125,-0.155
8.4609375,-0.175
8.46875,-0.205
8.4765625,-0.185
8.484375,-0.155
8.4921875,-0.195
8.5,-0.215
8.5078125,-0.205
8.515625,-0.225
8.5234375,-0.185
8.53125,-0.135
8.5390625,-0.095
8.546875,-0.095
8.5546875,-0.095
8.5625,-0.125
8.5703125,-0.105
8.578125,-0.045
8.5859375,-0.075
8.59375,-0.075
8.6015625,-0.135
8.609375,-0.205
8.6171875,-0.265
8.625,-0.305
8.6328125,-0.325
8.640625,-0.345
8.6484375,-0.325
8.65625,-0.345
8.6640625,-0.325
8.671875,-0.315
8.6796875,-0.275
8.6875,-0.365
8.6953125,-0.495
8.703125,0.085
8.7109375,1.165
8.71875,1.995
8.7265625,1.425
8.734375,-0.335
8.7421875,-0.835
8.75,-0.635
8.7578125,-0.425
8.765625,-0.355
8.7734375,-0.355
8.78125,-0.355
8.7890625,-0.315
8.796875,-0.275
8.8046875,-0.315
8.8125,-0.305
8.8203125,-0.295
8.828125,-0.295
8.8359375,-0.255
8.84375,-0.255
8.8515625,-0.245
8.859375,-0.165
8.8671875,-0.195
8.875,-0.185
8.8828125,-0.155
8.890625,-0.135
8.8984375,-0.085
8.90625,-0.045
8.9140625,0.005
8.921875,0.065
8.9296875,0.115
8.9375,0.165
8.9453125,0.195
8.953125,0.215
8.9609375,0.185
8.96875,0.155
8.9765625,0.085
8.984375,0.005
8.9921875,-0.065
9,-0.095
9.0078125,-0.175
9.015625,-0.175
9.0234375,-0.225
9.03125,-0.225
9.0390625,-0.255
9.046875,-0.255
9.0546875,-0.265
9.0625,-0.235
9.0703125,-0.215
9.078125,-0.225
9.0859375,-0.235
9.09375,-0.175
9.1015625,-0.155
9.109375,-0.125
9.1171875,-0.165
9.125,-0.125
9.1328125,-0.175
9.140625,-0.155
9.1484375,-0.165
9.15625,-0.185
9.1640625,-0.105
9.171875,-0.095
9.1796875,-0.105
9.1875,-0.165
9.1953125,-0.165
9.203125,-0.185
9.2109375,-0.205
9.21875,-0.195
9.2265625,-0.225
9.234375,-0.205
9.2421875,-0.205
9.25,-0.235
9.2578125,-0.145
9.265625,-0.115
9.2734375,-0.155
9.28125,-0.155
9.2890625,-0.175
9.296875,-0.145
9.3046875,-0.105
9.3125,-0.115
9.3203125,-0.105
9.328125,-0.205
9.3359375,-0.275
9.34375,-0.295
9.3515625,-0.365
9.359375,-0.405
9.3671875,-0.405
9.375,-0.445
9.3828125,-0.445
9.390625,-0.445
9.3984375,-0.445
9.40625,-0.395
9.4140625,-0.435
9.421875,-0.665
9.4296875,-0.105
9.4375,0.985
9.4453125,1.915
9.453125,1.565
9.4609375,-0.345
9.46875,-0.865
9.4765625,-0.885
9.484375,-0.695
9.4921875,-0.525
9.5,-0.515
9.5078125,-0.515
9.515625,-0.485
9.5234375,-0.485
9.53125,-0.515
9.5390625,-0.445
9.546875,-0.455
9.5546875,-0.425
9.5625,-0.395
9.5703125,-0.415
9.578125,-0.425
9.5859375,-0.395
9.59375,-0.375
9.6015625,-0.365
9.609375,-0.345
9.6171875,-0.305
9.625,-0.245
9.6328125,-0.215
9.640625,-0.145
9.6484375,-0.115
9.65625,-0.075
9.6640625,-0.035
9.671875,-0.035
9.6796875,-0.025
9.6875,-0.035
9.6953125,-0.035
9.703125,-0.045
9.7109375,-0.075
9.71875,-0.135
9.7265625,-0.195
9.734375,-0.215
9.7421875,-0.285
9.75,-0.285
9.7578125,-0.295
9.765625,-0.325
9.7734375,-0.275
9.78125,-0.255
9.7890625,-0.245
9.796875,-0.225
9.8046875,-0.185
9.8125,-0.165
9.8203125,-0.165
9.828125,-0.175
9.8359375,-0.175
9.84375,-0.125
9.8515625,-0.115
9.859375,-0.095
9.8671875,-0.095
9.875,-0.095
9.8828125,-0.105
9.890625,-0.105
9.8984375,-0.105
9.90625,-0.075
9.9140625,-0.095
9.921875,-0.085
9.9296875,-0.105
9.9375,-0.135
9.9453125,-0.105
9.953125,-0.155
9.9609375,-0.085
9.96875,-0.015
9.9765625,0.015
9.984375,0.025
9.9921875,-0.005
10,0.005
10.0078125,0.065
10.015625,0.055
10.0234375,0.055
10.03125,-0.015
10.0390625,-0.105
10.046875,-0.155
10.0546875,-0.175
10.0625,-0.205
10.0703125,-0.235
10.078125,-0.225
10.0859375,-0.225
10.09375,-0.185
10.1015625,-0.205
10.109375,-0.195
10.1171875,-0.185
10.125,-0.405
10.1328125,0.065
10.140625,1.285
10.1484375,2.155
10.15625,2.145
10.1640625,0.285
10.171875,-0.685
10.1796875,-0.535
10.1875,-0.255
10.1953125,-0.205
10.203125,-0.185
10.2109375,-0.205
10.21875,-0.195
10.2265625,-0.155
10.234375,-0.155
10.2421875,-0.165
10.25,-0.135
10.2578125,-0.145
10.265625,-0.145
10.2734375,-0.135
10.28125,-0.115
10.2890625,-0.095
10.296875,-0.065
10.3046875,-0.055
10.3125,-0.045
10.3203125,-0.025
10.328125,-0.045
10.3359375,-0.095
10.34375,0.025
10.3515625,0.095
10.359375,0.105
10.3671875,0.175
10.375,0.205
10.3828125,0.185
10.390625,0.175
10.3984375,0.145
10.40625,0.105
10.4140625,0.045
10.421875,-0.015
10.4296875,-0.055
10.4375,-0.095
10.4453125,-0.165
10.453125,-0.175
10.4609375,-0.165
10.46875,-0.185
10.4765625,-0.195
10.484375,-0.185
10.4921875,-0.175
10.5,-0.155
10.5078125,-0.135
10.515625,-0.145
10.5234375,-0.135
10.53125,-0.115
10.5390625,-0.115
10.546875,-0.115
10.5546875,-0.085
10.5625,-0.095
10.5703125,-0.085
10.578125,-0.075
10.5859375,-0.075
10.59375,-0.065
10.6015625,-0.055
10.609375,-0.075
10.6171875,-0.045
10.625,-0.025
10.6328125,-0.045
10.640625,-0.035
10.6484375,-0.035
10.65625,-0.025
10.6640625,-0.035
10.671875,-0.035
10.6796875,0.045
10.6875,0.095
10.6953125,0.095
10.703125,0.125
10.7109375,0.075
10.71875,0.105
10.7265625,0.165
10.734375,0.145
10.7421875,0.165
10.75,0.095
10.7578125,0.025
10.765625,-0.015
10.7734375,-0.065
10.78125,-0.115
10.7890625,-0.105
10.796875,-0.085
10.8046875,-0.085
10.8125,-0.095
10.8203125,-0.085
10.828125,-0.055
10.8359375,-0.095
10.84375,-0.315
10.8515625,0.085
10.859375,1.145
10.8671875,2.035
10.875,2.145
10.8828125,0.445
10.890625,-0.575
10.8984375,-0.495
10.90625,-0.215
10.9140625,-0.135
10.921875,-0.115
10.9296875,-0.115
10.9375,-0.105
10.9453125,-0.095
10.953125,-0.065
10.9609375,-0.055
10.96875,-0.055
10.9765625,-0.025
10.984375,-0.045
10.9921875,-0.005
11,-0.025
11.0078125,-0.015
11.015625,0.015
11.0234375,0.025
11.03125,0.035
11.0390625,0.055
11.046875,0.085
11.0546875,0.125
11.0625,0.165
11.0703125,0.195
11.078125,0.235
11.0859375,0.285
11.09375,0.305
11.1015625,0.305
11.109375,0.315
11.1171875,0.305
11.125,0.285
11.1328125,0.245
11.140625,0.185
11.1484375,0.105
11.15625,0.085
11.1640625,0.035
11.171875,-0.005
11.1796875,-0.005
11.1875,-0.015
11.1953125,-0.005
11.203125,-0.015
11.2109375,-0.005
11.21875,-0.015
11.2265625,-0.005
11.234375,-0.025
11.2421875,-0.005
11.25,0.025
11.2578125,-0.015
11.265625,-0.005
11.2734375,0.015
11.28125,0.015
11.2890625,-0.025
11.296875,-0.005
11.3046875,-0.015
11.3125,-0.035
11.3203125,-0.015
11.328125,-0.045
11.3359375,-0.055
11.34375,-0.045
11.3515625,-0.055
11.359375,-0.075
11.3671875,-0.085
11.375,-0.065
11.3828125,0.015
11.390625,0.025
11.3984375,0.045
11.40625,0.045
11.4140625,0.015
11.421875,0.065
11.4296875,0.085
11.4375,0.085
11.4453125,0.055
11.453125,-0.035
11.4609375,-0.105
11.46875,-0.145
11.4765625,-0.175
11.484375,-0.195
11.4921875,-0.195
11.5,-0.195
11.5078125,-0.185
11.515625,-0.185
11.5234375,-0.205
11.53125,-0.155
11.5390625,-0.175
11.546875,-0.395
11.5546875,0.055
11.5625,1.135
11.5703125,1.975
11.578125,1.755
11.5859375,-0.045
11.59375,-0.715
11.6015625,-0.535
11.609375,-0.295
11.6171875,-0.235
11.625,-0.225
11.6328125,-0.225
11.640625,-0.235
11.6484375,-0.215
11.65625,-0.185
11.6640625,-0.195
11.671875,-0.175
11.6796875,-0.175
11.6875,-0.145
11.6953125,-0.145
11.703125,-0.135
11.7109375,-0.115
11.71875,-0.095
11.7265625,-0.105
11.734375,-0.065
11.7421875,-0.045
11.75,-0.005
11.7578125,0.025
11.765625,0.055
11.7734375,0.115
11.78125,0.145
11.7890625,0.155
11.796875,0.185
11.8046875,0.175
11.8125,0.175
11.8203125,0.165
11.828125,0.145
11.8359375,0.075
11.84375,0.035
11.8515625,-0.045
11.859375,-0.065
11.8671875,-0.115
11.875,-0.125
11.8828125,-0.155
11.890625,-0.155
11.8984375,-0.165
11.90625,-0.135
11.9140625,-0.135
11.921875,-0.125
11.9296875,-0.115
11.9375,-0.105
11.9453125,-0.105
11.953125,-0.085
11.9609375,-0.095
11.96875,-0.085
11.9765625,-0.085
11.984375,-0.085
11.9921875,-0.095
12,-0.105
12.0078125,-0.105
12.015625,-0.115
12.0234375,-0.115
12.03125,-0.125
12.0390625,-0.135
12.046875,-0.145
12.0546875,-0.125
12.0625,-0.055
12.0703125,-0.025
12.078125,-0.015
12.0859375,-0.015
12.09375,-0.065
12.1015625,-0.005
12.109375,0.035
12.1171875,0.015
12.125,0.005
12.1328125,-0.125
12.140625,-0.205
12.1484375,-0.215
12.15625,-0.265
12.1640625,-0.275
12.171875,-0.265
12.1796875,-0.275
12.1875,-0.285
12.1953125,-0.265
12.203125,-0.255
12.2109375,-0.235
12.21875,-0.285
12.2265625,-0.445
12.234375,0.015
12.2421875,1.065
12.25,1.875
12.2578125,1.625
12.265625,-0.085
12.2734375,-0.715
12.28125,-0.535
12.2890625,-0.305
12.296875,-0.265
12.3046875,-0.265
12.3125,-0.245
12.3203125,-0.245
12.328125,-0.225
12.3359375,-0.225
12.34375,-0.215
12.3515625,-0.205
12.359375,-0.205
12.3671875,-0.185
12.375,-0.175
12.3828125,-0.175
12.390625,-0.145
12.3984375,-0.145
12.40625,-0.115
12.4140625,-0.105
12.421875,-0.075
12.4296875,-0.055
12.4375,-0.015
12.4453125,0.025
12.453125,0.065
12.4609375,0.085
12.46875,0.115
12.4765625,0.125
12.484375,0.125
12.4921875,0.145
12.5,0.145
12.5078125,0.085
12.515625,0.015
12.5234375,-0.015
12.53125,-0.055
12.5390625,-0.095
12.546875,-0.125
12.5546875,-0.125
12.5625,-0.165
12.5703125,-0.155
12.578125,-0.165
12.5859375,-0.155
12.59375,-0.135
12.6015625,-0.125
12.609375,-0.125
12.6171875,-0.115
12.625,-0.105
12.6328125,-0.125
12.640625,-0.115
12.6484375,-0.115
12.65625,-0.115
12.6640625,-0.135
12.671875,-0.125
12.6796875,-0.135
12.6875,-0.145
12.6953125,-0.145
12.703125,-0.145
12.7109375,-0.145
12.71875,-0.095
12.7265625,-0.065
12.734375,-0.065
12.7421875,-0.055
12.75,-0.085
12.7578125,-0.035
12.765625,0.025
12.7734375,0.055
12.78125,-0.005
12.7890625,-0.115
12.796875,-0.215
12.8046875,-0.225
12.8125,-0.305
12.8203125,-0.315
12.828125,-0.295
12.8359375,-0.315
12.84375,-0.305
12.8515625,-0.295
12.859375,-0.265
12.8671875,-0.255
12.875,-0.335
12.8828125,-0.475
12.890625,0.055
12.8984375,1.125
12.90625,1.915
12.9140625,1.495
12.921875,-0.225
12.9296875,-0.735
12.9375,-0.525
12.9453125,-0.335
12.953125,-0.285
12.9609375,-0.295
12.96875,-0.285
12.9765625,-0.255
12.984375,-0.255
12.9921875,-0.265
13,-0.275
13.0078125,-0.185
13.015625,-0.215
13.0234375,-0.225
13.03125,-0.215
13.0390625,-0.185
13.046875,-0.215
13.0546875,-0.175
13.0625,-0.155
13.0703125,-0.145
13.078125,-0.125
13.0859375,-0.095
13.09375,-0.035
13.1015625,-0.005
13.109375,0.015
13.1171875,0.055
13.125,0.035
13.1328125,0.085
13.140625,0.045
13.1484375,0.045
13.15625,0.025
13.1640625,-0.02
13.171875,-0.09
13.1796875,-0.13
13.1875,-0.16
13.1953125,-0.2
13.203125,-0.2
13.2109375,-0.24
13.21875,-0.2
13.2265625,-0.22
13.234375,-0.22
13.2421875,-0.23
13.25,-0.16
13.2578125,-0.22
13.265625,-0.17
13.2734375,-0.19
13.28125,-0.19
13.2890625,-0.21
13.296875,-0.22
13.3046875,-0.23
13.3125,-0.23
13.3203125,-0.22
13.328125,-0.14
13.3359375,-0.12
13.34375,-0.13
13.3515625,-0.14
13.359375,-0.14
13.3671875,-0.08
13.375,-0.11
13.3828125,-0.07
13.390625,-0.21
13.3984375,-0.3
13.40625,-0.34
13.4140625,-0.36
13.421875,-0.38
13.4296875,-0.39
13.4375,-0.39
13.4453125,-0.37
13.453125,-0.37
13.4609375,-0.39
13.46875,-0.35
13.4765625,-0.35
13.484375,-0.59
13.4921875,-0.3
13.5,0.72
13.5078125,1.72
13.515625,1.87
13.5234375,0.3
13.53125,-0.72
13.5390625,-0.77
13.546875,-0.5
13.5546875,-0.39
13.5625,-0.39
13.5703125,-0.39
13.578125,-0.56
13.5859375,-0.27
13.59375,-0.41
13.6015625,-0.21
13.609375,-0.34
13.6171875,-0.39
13.625,-0.36
13.6328125,-0.35
13.640625,-0.33
13.6484375,-0.3
13.65625,-0.255
13.6640625,-0.275
13.671875,-0.255
13.6796875,-0.195
13.6875,-0.175
13.6953125,-0.165
13.703125,-0.145
13.7109375,-0.125
13.71875,-0.035
13.7265625,0.015
13.734375,0.005
13.7421875,0.005
13.75,0.005
13.7578125,0.025
13.765625,0.005
13.7734375,0.005
13.78125,-0.095
13.7890625,-0.095
13.796875,-0.095
13.8046875,-0.115
13.8125,-0.165
13.8203125,-0.175
13.828125,-0.155
13.8359375,-0.165
13.84375,-0.155
13.8515625,-0.145
13.859375,-0.155
13.8671875,-0.145
13.875,-0.075
13.8828125,-0.115
13.890625,-0.115
13.8984375,-0.095
13.90625,-0.085
13.9140625,-0.125
13.921875,-0.135
13.9296875,-0.055
13.9375,-0.185
13.9453125,-0.135
13.953125,0.085
13.9609375,-0.125
13.96875,-0.065
13.9765625,-0.045
13.984375,-0.055
13.9921875,-0.095
14,-0.035
14.0078125,0.075
14.015625,-0.035
14.0234375,-0.155
14.03125,-0.235
14.0390625,-0.255
14.046875,-0.285
14.0546875,-0.405
14.0625,-0.225
14.0703125,-0.365
14.078125,-0.385
14.0859375,-0.375
14.09375,-0.355
14.1015625,-0.365
14.109375,-0.315
14.1171875,-0.465
14.125,-0.505
14.1328125,0.515
14.140625,1.515
14.1484375,1.885
14.15625,0.605
14.1640625,-0.695
14.171875,-0.765
14.1796875,-0.465
14.1875,-0.365
14.1953125,-0.325
14.203125,-0.405
14.2109375,-0.225
14.21875,-0.315
14.2265625,-0.345
14.234375,-0.305
14.2421875,-0.305
14.25,-0.295
14.2578125,-0.255
14.265625,-0.305
14.2734375,-0.325
14.28125,-0.275
14.2890625,-0.185
14.296875,-0.265
14.3046875,-0.225
14.3125,-0.205
14.3203125,-0.155
14.328125,-0.255
14.3359375,-0.145
14.34375,0.175
14.3515625,-0.125
14.359375,-0.125
14.3671875,-0.085
14.375,-0.085
14.3828125,-0.055
14.390625,-0.065
14.3984375,-0.065
14.40625,-0.115
14.4140625,-0.155
14.421875,-0.225
14.4296875,-0.265
14.4375,-0.205
14.4453125,-0.355
14.453125,-0.345
14.4609375,-0.315
14.46875,-0.305
14.4765625,-0.235
14.484375,-0.325
14.4921875,-0.225
14.5,-0.175
14.5078125,-0.235
14.515625,-0.255
14.5234375,-0.205
14.53125,-0.225
14.5390625,-0.385
14.546875,0.015
14.5546875,-0.255
14.5625,-0.225
14.5703125,-0.135
14.578125,-0.145
14.5859375,-0.115
14.59375,-0.085
14.6015625,-0.105
14.609375,-0.065
14.6171875,-0.015
14.625,-0.005
14.6328125,-0.125
14.640625,-0.095
14.6484375,-0.175
14.65625,-0.235
14.6640625,-0.255
14.671875,-0.235
14.6796875,-0.215
14.6875,-0.225
14.6953125,-0.215
14.703125,-0.195
14.7109375,-0.195
14.71875,-0.165
14.7265625,-0.285
14.734375,-0.385
14.7421875,0.265
14.75,1.155
14.7578125,1.735
14.765625,1.025
14.7734375,-0.265
14.78125,-0.525
14.7890625,-0.325
14.796875,-0.235
14.8046875,-0.225
14.8125,-0.225
14.8203125,-0.235
14.828125,-0.215
14.8359375,-0.185
14.84375,-0.185
14.8515625,-0.185
14.859375,-0.185
14.8671875,-0.195
14.875,-0.185
14.8828125,-0.145
14.890625,-0.165
14.8984375,-0.145
14.90625,-0.125
14.9140625,-0.115
14.921875,-0.095
14.9296875,-0.085
14.9375,-0.045
14.9453125,-0.025
14.953125,0.015
14.9609375,0.045
14.96875,0.065
14.9765625,0.045
14.984375,0.065
14.9921875,0.065
15,0.065
15.0078125,0.065
15.015625,0.025
15.0234375,-0.015
15.03125,-0.065
15.0390625,-0.085
15.046875,-0.105
15.0546875,-0.125
15.0625,-0.145
15.0703125,-0.155
15.078125,-0.165
15.0859375,-0.095
15.09375,-0.125
15.1015625,-0.125
15.109375,-0.085
15.1171875,-0.075
15.125,-0.085
15.1328125,-0.075
15.140625,-0.105
15.1484375,-0.095
15.15625,-0.085
15.1640625,-0.105
15.171875,-0.125
15.1796875,-0.075
15.1875,-0.015
15.1953125,-0.015
15.203125,0.005
15.2109375,-0.015
15.21875,-0.035
15.2265625,0.015
15.234375,0.045
15.2421875,0.025
15.25,-0.015
15.2578125,-0.115
15.265625,-0.195
15.2734375,-0.225
15.28125,-0.265
15.2890625,-0.285
15.296875,-0.295
15.3046875,-0.295
15.3125,-0.275
15.3203125,-0.275
15.328125,-0.275
15.3359375,-0.265
15.34375,-0.305
15.3515625,-0.465
15.359375,-0.015
15.3671875,0.995
15.375,1.885
15.3828125,1.585
15.390625,-0.095
15.3984375,-0.735
15.40625,-0.555
15.4140625,-0.385
15.421875,-0.325
15.4296875,-0.335
15.4375,-0.325
15.4453125,-0.325
15.453125,-0.325
15.4609375,-0.315
15.46875,-0.315
15.4765625,-0.295
15.484375,-0.285
15.4921875,-0.285
15.5,-0.265
15.5078125,-0.265
15.515625,-0.255
15.5234375,-0.225
15.53125,-0.205
15.5390625,-0.185
15.546875,-0.175
15.5546875,-0.165
15.5625,-0.125
15.5703125,-0.085
15.578125,-0.055
15.5859375,-0.025
15.59375,-0.015
15.6015625,-0.015
15.609375,-0.025
15.6171875,-0.025
15.625,-0.025
15.6328125,-0.035
15.640625,-0.075
15.6484375,-0.125
15.65625,-0.165
15.6640625,-0.205
15.671875,-0.225
15.6796875,-0.235
15.6875,-0.225
15.6953125,-0.215
15.703125,-0.205
15.7109375,-0.195
15.71875,-0.175
15.7265625,-0.165
15.734375,-0.155
15.7421875,-0.145
15.75,-0.125
15.7578125,-0.115
15.765625,-0.125
15.7734375,-0.105
15.78125,-0.105
15.7890625,-0.075
15.796875,-0.035
15.8046875,-0.005
15.8125,0.005
15.8203125,0.015
15.828125,-0.005
15.8359375,0.025
15.84375,0.065
15.8515625,0.055
15.859375,0.045
15.8671875,-0.005
15.875,-0.065
15.8828125,-0.095
15.890625,-0.135
15.8984375,-0.155
15.90625,-0.155
15.9140625,-0.165
15.921875,-0.165
15.9296875,-0.165
15.9375,-0.165
15.9453125,-0.155
15.953125,-0.145
15.9609375,-0.275
15.96875,-0.135
15.9765625,0.565
15.984375,1.375
15.9921875,1.655
16,0.645
16.0078125,-0.275
16.015625,-0.365
16.0234375,-0.225
16.03125,-0.145
16.0390625,-0.145
16.046875,-0.145
16.0546875,-0.125
16.0625,-0.105
16.0703125,-0.105
16.078125,-0.085
16.0859375,-0.085
16.09375,-0.075
16.1015625,-0.055
16.109375,-0.065
16.1171875,-0.055
16.125,-0.045
16.1328125,-0.035
16.140625,-0.035
16.1484375,-0.005
16.15625,0.015
16.1640625,0.035
16.171875,0.065
16.1796875,0.085
16.1875,0.115
16.1953125,0.135
16.203125,0.145
16.2109375,0.155
16.21875,0.155
16.2265625,0.145
16.234375,0.145
16.2421875,0.155
16.25,0.105
16.2578125,0.055
16.265625,0.015
16.2734375,-0.015
16.28125,-0.045
16.2890625,-0.045
16.296875,-0.055
16.3046875,-0.045
16.3125,-0.045
16.3203125,-0.035
16.328125,-0.025
16.3359375,-0.015
16.34375,-0.015
16.3515625,-0.005
16.359375,-0.005
16.3671875,-0.005
16.375,-0.005
16.3828125,-0.005
16.390625,-0.005
16.3984375,-0.015
16.40625,-0.015
16.4140625,-0.025
16.421875,-0.045
16.4296875,-0.005
16.4375,0.075
16.4453125,0.075
16.453125,0.065
16.4609375,0.055
16.46875,0.065
16.4765625,0.115
16.484375,0.125
16.4921875,0.115
16.5,0.055
16.5078125,-0.045
16.515625,-0.125
16.5234375,-0.145
16.53125,-0.165
16.5390625,-0.185
16.546875,-0.195
16.5546875,-0.195
16.5625,-0.175
16.5703125,-0.185
16.578125,-0.175
16.5859375,-0.155
16.59375,-0.265
16.6015625,-0.405
16.609375,0.375
16.6171875,1.525
16.625,2.145
16.6328125,0.915
16.640625,-0.475
16.6484375,-0.545
16.65625,-0.275
16.6640625,-0.195
16.671875,-0.155
16.6796875,-0.135
16.6875,-0.125
16.6953125,-0.105
16.703125,-0.075
16.7109375,-0.065
16.71875,-0.045
16.7265625,-0.035
16.734375,-0.015
16.7421875,0.015
16.75,0.035
16.7578125,0.045
16.765625,0.085
16.7734375,0.105
16.78125,0.125
16.7890625,0.145
16.796875,0.195
16.8046875,0.205
16.8125,0.235
16.8203125,0.255
16.828125,0.275
16.8359375,0.285
16.84375,0.295
16.8515625,0.295
16.859375,0.305
16.8671875,0.305
16.875,0.315
16.8828125,0.305
16.890625,0.295
16.8984375,0.295
16.90625,0.295
16.9140625,0.295
16.921875,0.295
16.9296875,0.295
16.9375,0.305
16.9453125,0.315
16.953125,0.315
16.9609375,0.315
16.96875,0.325
16.9765625,0.325
16.984375,0.325
16.9921875,0.325
17,0.325
17.0078125,0.325
17.015625,0.325
17.0234375,0.325
17.03125,0.325
17.0390625,0.325
17.046875,0.325
17.0546875,0.325
17.0625,0.315
17.0703125,0.315
17.078125,0.305
17.0859375,0.315
17.09375,0.315
17.1015625,0.315
17.109375,0.315
17.1171875,0.305
17.125,0.315
17.1328125,0.315
17.140625,0.315
17.1484375,0.305
17.15625,0.305
17.1640625,0.285
17.171875,0.265
17.1796875,0.265
17.1875,0.265
17.1953125,0.255
17.203125,0.245
17.2109375,0.235
17.21875,0.235
17.2265625,0.225
17.234375,0.225
17.2421875,0.215
17.25,0.185
17.2578125,0.245
17.265625,0.435
17.2734375,0.665
17.28125,0.655
17.2890625,0.275
17.296875,0.055
17.3046875,0.025
17.3125,0.055
17.3203125,0.065
17.328125,0.045
17.3359375,0.025
17.34375,0.005
17.3515625,-0.015
17.359375,-0.025
17.3671875,-0.045
17.375,-0.045
17.3828125,-0.065
17.390625,-0.075
17.3984375,-0.095
17.40625,-0.095
17.4140625,-0.095
17.421875,-0.085
17.4296875,-0.095
17.4375,-0.085
17.4453125,-0.095
17.453125,-0.065
17.4609375,-0.045
17.46875,-0.025
17.4765625,0.005
17.484375,0.025
17.4921875,0.035
17.5,0.035
17.5078125,0.025
17.515625,0.015
17.5234375,0.015
17.53125,-0.025
17.5390625,-0.065
17.546875,-0.115
17.5546875,-0.155
17.5625,-0.175
17.5703125,-0.195
17.578125,-0.215
17.5859375,-0.215
17.59375,-0.195
17.6015625,-0.195
17.609375,-0.185
17.6171875,-0.185
17.625,-0.175
17.6328125,-0.145
17.640625,-0.135
17.6484375,-0.135
17.65625,-0.125
17.6640625,-0.125
17.671875,-0.115
17.6796875,-0.115
17.6875,-0.135
17.6953125,-0.145
17.703125,-0.145
17.7109375,-0.135
17.71875,-0.145
17.7265625,-0.165
17.734375,-0.165
17.7421875,-0.095
17.75,-0.055
17.7578125,-0.045
17.765625,-0.045
17.7734375,-0.085
17.78125,-0.035
17.7890625,0.015
17.796875,0.005
17.8046875,0.005
17.8125,-0.095
17.8203125,-0.195
17.828125,-0.215
17.8359375,-0.255
17.84375,-0.275
17.8515625,-0.285
17.859375,-0.275
17.8671875,-0.285
17.875,-0.265
17.8828125,-0.255
17.890625,-0.225
17.8984375,-0.255
17.90625,-0.435
17.9140625,-0.095
17.921875,0.905
17.9296875,1.785
17.9375,1.705
17.9453125,0.175
17.953125,-0.605
17.9609375,-0.545
17.96875,-0.315
17.9765625,-0.265
17.984375,-0.265
17.9921875,-0.265
18,-0.245
18.0078125,-0.235
18.015625,-0.235
18.0234375,-0.215
18.03125,-0.205
18.0390625,-0.195
18.046875,-0.185
18.0546875,-0.195
18.0625,-0.145
18.0703125,-0.155
18.078125,-0.125
18.0859375,-0.115
18.09375,-0.095
18.1015625,-0.075
18.109375,-0.035
18.1171875,-0.015
18.125,0.035
18.1328125,0.065
18.140625,0.095
18.1484375,0.095
18.15625,0.105
18.1640625,0.115
18.171875,0.125
18.1796875,0.095
18.1875,0.065
18.1953125,0.015
18.203125,-0.025
18.2109375,-0.075
18.21875,-0.095
18.2265625,-0.115
18.234375,-0.145
18.2421875,-0.135
18.25,-0.155
18.2578125,-0.135
18.265625,-0.135
18.2734375,-0.125
18.28125,-0.115
18.2890625,-0.105
18.296875,-0.105
18.3046875,-0.095
18.3125,-0.065
18.3203125,-0.075
18.328125,-0.085
18.3359375,-0.085
18.34375,-0.075
18.3515625,-0.095
18.359375,-0.095
18.3671875,-0.115
18.375,-0.105
18.3828125,-0.125
18.390625,-0.125
18.3984375,-0.105
18.40625,-0.105
18.4140625,-0.125
18.421875,-0.075
18.4296875,-0.045
18.4375,-0.025
18.4453125,-0.005
18.453125,-0.045
18.4609375,0.015
18.46875,0.045
18.4765625,0.045
18.484375,0.025
18.4921875,-0.075
18.5,-0.145
18.5078125,-0.175
18.515625,-0.215
18.5234375,-0.215
18.53125,-0.215
18.5390625,-0.235
18.546875,-0.235
18.5546875,-0.215
18.5625,-0.215
18.5703125,-0.185
18.578125,-0.215
18.5859375,-0.385
18.59375,0.005
18.6015625,0.995
18.609375,1.855
18.6171875,1.615
18.625,-0.025
18.6328125,-0.675
18.640625,-0.485
18.6484375,-0.285
18.65625,-0.225
18.6640625,-0.245
18.671875,-0.225
18.6796875,-0.225
18.6875,-0.205
18.6953125,-0.195
18.703125,-0.185
18.7109375,-0.185
18.71875,-0.165
18.7265625,-0.155
18.734375,-0.155
18.7421875,-0.135
18.75,-0.115
18.7578125,-0.085
18.765625,-0.085
18.7734375,-0.045
18.78125,-0.015
18.7890625,0.015
18.796875,0.045
18.8046875,0.085
18.8125,0.125
18.8203125,0.145
18.828125,0.155
18.8359375,0.155
18.84375,0.155
18.8515625,0.145
18.859375,0.145
18.8671875,0.105
18.875,0.055
18.8828125,0.015
18.890625,-0.005
18.8984375,-0.035
18.90625,-0.055
18.9140625,-0.065
18.921875,-0.065
18.9296875,-0.065
18.9375,-0.055
18.9453125,-0.055
18.953125,-0.055
18.9609375,-0.025
18.96875,-0.025
18.9765625,-0.035
18.984375,-0.015
18.9921875,-0.025
19,-0.015
19.0078125,-0.015
19.015625,-0.035
19.0234375,-0.055
19.03125,-0.065
19.0390625,-0.075
19.046875,-0.085
19.0546875,-0.085
19.0625,-0.115
19.0703125,-0.115
19.078125,-0.125
19.0859375,-0.125
19.09375,-0.135
19.1015625,-0.125
19.109375,-0.125
19.1171875,-0.075
19.125,-0.035
19.1328125,-0.025
19.140625,-0.005
19.1484375,-0.035
19.15625,-0.015
19.1640625,0.045
19.171875,0.055
19.1796875,0.045
19.1875,-0.045
19.1953125,-0.145
19.203125,-0.185
19.2109375,-0.225
19.21875,-0.245
19.2265625,-0.245
19.234375,-0.255
19.2421875,-0.255
19.25,-0.245
19.2578125,-0.235
19.265625,-0.215
19.2734375,-0.205
19.28125,-0.385
19.2890625,-0.215
19.296875,0.755
19.3046875,1.795
19.3125,1.965
19.3203125,0.365
19.328125,-0.695
19.3359375,-0.595
19.34375,-0.325
19.3515625,-0.245
19.359375,-0.255
19.3671875,-0.255
19.375,-0.215
19.3828125,-0.205
19.390625,-0.195
19.3984375,-0.205
19.40625,-0.185
19.4140625,-0.185
19.421875,-0.175
19.4296875,-0.165
19.4375,-0.145
19.4453125,-0.125
19.453125,-0.105
19.4609375,-0.095
19.46875,-0.085
19.4765625,-0.055
19.484375,-0.025
19.4921875,5
19.5,5
19.5078125,5
19.515625,5
19.5234375,5
19.53125,5
19.5390625,0.135
19.546875,0.125
19.5546875,0.125
19.5625,0.115
19.5703125,0.045
19.578125,-0.005
19.5859375,-0.055
19.59375,-0.085
19.6015625,-0.115
19.609375,-0.135
19.6171875,-0.155
19.625,-0.155
19.6328125,-0.155
19.640625,-0.145
19.6484375,-0.135
19.65625,-0.105
19.6640625,-0.115
19.671875,-0.115
19.6796875,-0.105
19.6875,-0.095
19.6953125,-0.115
19.703125,-0.105
19.7109375,-0.115
19.71875,-0.125
19.7265625,-0.135
19.734375,-0.135
19.7421875,-0.145
19.75,-0.155
19.7578125,-0.155
19.765625,-0.155
19.7734375,-0.165
19.78125,-0.175
19.7890625,-0.155
19.796875,-0.185
19.8046875,-0.155
19.8125,-0.095
19.8203125,-0.065
19.828125,-0.055
19.8359375,-0.075
19.84375,-0.085
19.8515625,-0.015
19.859375,-0.005
19.8671875,-0.015
19.875,-0.045
19.8828125,-0.165
19.890625,-0.245
19.8984375,-0.255
19.90625,-0.285
19.9140625,-0.315
19.921875,-0.315
19.9296875,-0.305
19.9375,-0.305
19.9453125,-0.305
19.953125,-0.305
19.9609375,-0.295
19.96875,-0.325
19.9765625,-0.495
19.984375,-0.065
19.9921875,0.985
20,1.885
20.0078125,1.655
20.015625,-0.105
20.0234375,-0.815
20.03125,-0.605
20.0390625,-0.385
20.046875,-0.335
20.0546875,-0.345
20.0625,-0.325
20.0703125,-0.335
20.078125,-0.335
20.0859375,-0.295
20.09375,-0.285
20.1015625,-0.305
20.109375,-0.285
20.1171875,-0.275
20.125,-0.265
20.1328125,-0.255
20.140625,-0.235
20.1484375,-0.235
20.15625,-0.215
20.1640625,-0.195
20.171875,-0.175
20.1796875,-0.135
20.1875,-0.095
20.1953125,-0.075
20.203125,-0.045
20.2109375,-0.025
20.21875,0.015
20.2265625,0.005
20.234375,-0.005
20.2421875,-0.005
20.25,-0.005
20.2578125,-0.035
20.265625,-0.095
20.2734375,-0.145
20.28125,-0.175
20.2890625,-0.225
20.296875,-0.255
20.3046875,-0.265
20.3125,-0.285
20.3203125,-0.275
20.328125,-0.275
20.3359375,-0.275
20.34375,-0.245
20.3515625,-0.215
20.359375,-0.215
20.3671875,-0.225
20.375,-0.205
20.3828125,-0.205
20.390625,-0.215
20.3984375,-0.205
20.40625,-0.215
20.4140625,-0.245
20.421875,-0.245
20.4296875,-0.255
20.4375,-0.245
20.4453125,-0.275
20.453125,-0.265
20.4609375,-0.285
20.46875,-0.275
20.4765625,-0.305
20.484375,-0.275
20.4921875,-0.215
20.5,-0.215
20.5078125,-0.185
20.515625,-0.225
20.5234375,-0.215
20.53125,-0.145
20.5390625,-0.135
20.546875,-0.155
20.5546875,-0.195
20.5625,-0.315
20.5703125,-0.355
20.578125,-0.405
20.5859375,-0.445
20.59375,-0.445
20.6015625,-0.445
20.609375,-0.445
20.6171875,-0.435
20.625,-0.435
20.6328125,-0.425
20.640625,-0.435
20.6484375,-0.465
20.65625,-0.615
20.6640625,-0.095
20.671875,0.945
20.6796875,1.835
20.6875,1.495
20.6953125,-0.255
20.703125,-0.875
20.7109375,-0.715
20.71875,-0.465
20.7265625,-0.405
20.734375,-0.395
20.7421875,-0.395
20.75,-0.365
20.7578125,-0.345
20.765625,-0.335
20.7734375,-0.305
20.78125,-0.295
20.7890625,-0.285
20.796875,-0.285
20.8046875,-0.255
20.8125,-0.215
20.8203125,-0.215
20.828125,-0.195
20.8359375,-0.155
20.84375,-0.135
20.8515625,-0.125
20.859375,-0.065
20.8671875,-0.015
20.875,0.015
20.8828125,0.035
20.890625,0.055
20.8984375,0.095
20.90625,0.085
20.9140625,0.085
20.921875,0.085
20.9296875,0.065
20.9375,0.045
20.9453125,-0.005
20.953125,-0.055
20.9609375,-0.095
20.96875,-0.115
20.9765625,-0.135
20.984375,-0.155
20.9921875,-0.155
21,-0.155
21.0078125,-0.145
21.015625,-0.135
21.0234375,-0.125
21.03125,-0.115
21.0390625,-0.115
21.046875,-0.095
21.0546875,-0.095
21.0625,-0.105
21.0703125,-0.085
21.078125,-0.095
21.0859375,-0.095
21.09375,-0.085
21.1015625,-0.105
21.109375,-0.105
21.1171875,-0.115
21.125,-0.125
21.1328125,-0.145
21.140625,-0.145
21.1484375,-0.145
21.15625,-0.145
21.1640625,-0.075
21.171875,-0.045
21.1796875,-0.015
21.1875,-0.015
21.1953125,-0.075
21.203125,-0.005
21.2109375,0.025
21.21875,0.015
21.2265625,0.005
21.234375,-0.085
21.2421875,-0.165
21.25,-0.195
21.2578125,-0.235
21.265625,-0.255
21.2734375,-0.255
21.28125,-0.245
21.2890625,-0.255
21.296875,-0.235
21.3046875,-0.235
21.3125,-0.225
21.3203125,-0.235
21.328125,-0.375
21.3359375,-0.085
21.34375,0.785
21.3515625,1.625
21.359375,1.675
21.3671875,0.345
21.375,-0.545
21.3828125,-0.525
21.390625,-0.315
21.3984375,-0.235
21.40625,-0.215
21.4140625,-0.215
21.421875,-0.215
21.4296875,-0.205
21.4375,-0.195
21.4453125,-0.185
21.453125,-0.185
21.4609375,-0.165
21.46875,-0.145
21.4765625,-0.155
21.484375,-0.145
21.4921875,-0.125
21.5,-0.095
21.5078125,-0.085
21.515625,-0.085
21.5234375,-0.045
21.53125,-0.025
21.5390625,0.005
21.546875,0.055
21.5546875,0.095
21.5625,0.115
21.5703125,0.145
21.578125,0.145
21.5859375,0.135
21.59375,0.135
21.6015625,0.135
21.609375,0.115
21.6171875,0.065
21.625,0.025
21.6328125,-0.025
21.640625,-0.055
21.6484375,-0.085
21.65625,-0.095
21.6640625,-0.105
21.671875,-0.105
21.6796875,-0.115
21.6875,-0.095
21.6953125,-0.105
21.703125,-0.085
21.7109375,-0.065
21.71875,-0.055
21.7265625,-0.055
21.734375,-0.035
21.7421875,-0.025
21.75,-0.035
21.7578125,-0.035
21.765625,-0.035
21.7734375,-0.035
21.78125,-0.045
21.7890625,-0.035
21.796875,-0.055
21.8046875,-0.045
21.8125,-0.035
21.8203125,-0.045
21.828125,-0.045
21.8359375,0.015
21.84375,0.045
21.8515625,0.065
21.859375,0.075
21.8671875,0.025
21.875,0.075
21.8828125,0.125
21.890625,0.105
21.8984375,0.115
21.90625,0.025
21.9140625,-0.035
21.921875,-0.085
21.9296875,-0.115
21.9375,-0.135
21.9453125,-0.145
21.953125,-0.145
21.9609375,-0.165
21.96875,-0.155
21.9765625,-0.145
21.984375,-0.135
21.9921875,-0.125
22,-0.275
22.0078125,-0.075
22.015625,0.865
22.0234375,1.755
22.03125,1.615
22.0390625,0.145
22.046875,-0.535
22.0546875,-0.405
22.0625,-0.235
22.0703125,-0.195
22.078125,-0.185
22.0859375,-0.205
22.09375,-0.195
22.1015625,-0.175
22.109375,-0.165
22.1171875,-0.165
22.125,-0.135
22.1328125,-0.135
22.140625,-0.125
22.1484375,-0.115
22.15625,-0.105
22.1640625,-0.085
22.171875,-0.075
22.1796875,-0.055
22.1875,-0.035
22.1953125,0.005
22.203125,0.005
22.2109375,0.055
22.21875,0.085
22.2265625,0.115
22.234375,0.165
22.2421875,0.155
22.25,0.175
22.2578125,0.175
22.265625,0.165
22.2734375,0.155
22.28125,0.135
22.2890625,0.075
22.296875,0.025
22.3046875,-0.025
22.3125,-0.055
22.3203125,-0.075
22.328125,-0.105
22.3359375,-0.095
22.34375,-0.095
22.3515625,-0.105
22.359375,-0.105
22.3671875,-0.095
22.375,-0.065
22.3828125,-0.075
22.390625,-0.065
22.3984375,-0.055
22.40625,-0.045
22.4140625,-0.075
22.421875,-0.045
22.4296875,-0.055
22.4375,-0.055
22.4453125,-0.065
22.453125,-0.075
22.4609375,-0.075
22.46875,-0.095
22.4765625,-0.095
22.484375,-0.105
22.4921875,-0.075
22.5,-0.015
22.5078125,0.015
22.515625,0.035
22.5234375,0.015
22.53125,-0.005
22.5390625,0.055
22.546875,0.085
22.5546875,0.065
22.5625,0.045
22.5703125,-0.085
22.578125,-0.135
22.5859375,-0.175
22.59375,-0.205
22.6015625,-0.225
22.609375,-0.235
22.6171875,-0.225
22.625,-0.205
22.6328125,-0.215
22.640625,-0.225
22.6484375,-0.185
22.65625,-0.245
22.6640625,-0.425
22.671875,0.205
22.6796875,1.255
22.6875,2.085
22.6953125,1.355
22.703125,-0.315
22.7109375,-0.665
22.71875,-0.405
22.7265625,-0.265
22.734375,-0.225
22.7421875,-0.235
22.75,-0.205
22.7578125,-0.195
22.765625,-0.205
22.7734375,-0.195
22.78125,-0.185
22.7890625,-0.175
22.796875,-0.165
22.8046875,-0.145
22.8125,-0.145
22.8203125,-0.135
22.828125,-0.125
22.8359375,-0.075
22.84375,-0.055
22.8515625,-0.035
22.859375,-0.015
22.8671875,0.035
22.875,0.065
22.8828125,0.095
22.890625,0.125
22.8984375,0.145
22.90625,0.145
22.9140625,0.155
22.921875,0.165
22.9296875,0.145
22.9375,0.135
22.9453125,0.085
22.953125,0.065
22.9609375,0.005
22.96875,-0.005
22.9765625,-0.035
22.984375,-0.045
22.9921875,-0.035
23,-0.025
23.0078125,-0.015
23.015625,-0.015
23.0234375,0.005
23.03125,0.015
23.0390625,0.025
23.046875,0.015
23.0546875,0.035
23.0625,0.045
23.0703125,0.045
23.078125,0.045
23.0859375,0.045
23.09375,0.035
23.1015625,0.025
23.109375,0.025
23.1171875,0.025
23.125,0.015
23.1328125,0.015
23.140625,-0.005
23.1484375,0.015
23.15625,0.065
23.1640625,0.075
23.171875,0.085
23.1796875,0.065
23.1875,0.065
23.1953125,0.085
23.203125,0.115
23.2109375,0.105
23.21875,0.075
23.2265625,-0.005
23.234375,-0.055
23.2421875,-0.105
23.25,-0.125
23.2578125,-0.135
23.265625,-0.155
23.2734375,-0.165
23.28125,-0.165
23.2890625,-0.175
23.296875,-0.185
23.3046875,-0.175
23.3125,-0.195
23.3203125,-0.295
23.328125,-0.095
23.3359375,0.705
23.34375,1.555
23.3515625,1.535
23.359375,0.275
23.3671875,-0.505
23.375,-0.485
23.3828125,-0.325
23.390625,-0.275
23.3984375,-0.275
23.40625,-0.265
23.4140625,-0.265
23.421875,-0.255
23.4296875,-0.255
23.4375,-0.245
23.4453125,-0.245
23.453125,-0.235
23.4609375,-0.225
23.46875,-0.215
23.4765625,-0.195
23.484375,-0.185
23.4921875,-0.155
23.5,-0.165
23.5078125,-0.135
23.515625,-0.105
23.5234375,-0.085
23.53125,-0.045
23.5390625,-0.005
23.546875,0.015
23.5546875,0.045
23.5625,0.055
23.5703125,0.045
23.578125,0.055
23.5859375,0.055
23.59375,0.025
23.6015625,-0.025
23.609375,-0.075
23.6171875,-0.125
23.625,-0.165
23.6328125,-0.195
23.640625,-0.225
23.6484375,-0.245
23.65625,-0.245
23.6640625,-0.245
23.671875,-0.235
23.6796875,-0.245
23.6875,-0.235
23.6953125,-0.225
23.703125,-0.195
23.7109375,-0.205
23.71875,-0.205
23.7265625,-0.215
23.734375,-0.205
23.7421875,-0.205
23.75,-0.205
23.7578125,-0.225
23.765625,-0.235
23.7734375,-0.225
23.78125,-0.235
23.7890625,-0.255
23.796875,-0.245
23.8046875,-0.185
23.8125,-0.165
23.8203125,-0.165
23.828125,-0.185
23.8359375,-0.205
23.84375,-0.165
23.8515625,-0.115
23.859375,-0.145
23.8671875,-0.155
23.875,-0.265
23.8828125,-0.365
23.890625,-0.365
23.8984375,-0.405
23.90625,-0.425
23.9140625,-0.425
23.921875,-0.435
23.9296875,-0.425
23.9375,-0.435
23.9453125,-0.435
23.953125,-0.415
23.9609375,-0.435
23.96875,-0.645
23.9765625,-0.205
23.984375,0.925
23.9921875,1.895
24,1.735
24.0078125,-0.085
24.015625,-0.875
24.0234375,-0.795
24.03125,-0.525
24.0390625,-0.455
24.046875,-0.465
24.0546875,-0.455
24.0625,-0.445
24.0703125,-0.415
24.078125,-0.415
24.0859375,-0.405
24.09375,-0.395
24.1015625,-0.375
24.109375,-0.375
24.1171875,-0.365
24.125,-0.355
24.1328125,-0.315
24.140625,-0.315
24.1484375,-0.295
24.15625,-0.255
24.1640625,-0.235
24.171875,-0.185
24.1796875,-0.165
24.1875,-0.125
24.1953125,-0.095
24.203125,-0.085
24.2109375,-0.045
24.21875,-0.045
24.2265625,-0.045
24.234375,-0.055
24.2421875,-0.075
24.25,-0.095
24.2578125,-0.145
24.265625,-0.225
24.2734375,-0.265
24.28125,-0.295
24.2890625,-0.315
24.296875,-0.355
24.3046875,-0.355
24.3125,-0.355
24.3203125,-0.335
24.328125,-0.365
24.3359375,-0.325
24.34375,-0.305
24.3515625,-0.305
24.359375,-0.305
24.3671875,-0.275
24.375,-0.265
24.3828125,-0.265
24.390625,-0.275
24.3984375,-0.255
24.40625,-0.255
24.4140625,-0.255
24.421875,-0.255
24.4296875,-0.275
24.4375,-0.265
24.4453125,-0.205
24.453125,-0.195
24.4609375,-0.175
24.46875,-0.155
24.4765625,-0.215
24.484375,-0.165
24.4921875,-0.105
24.5,-0.125
24.5078125,-0.115
24.515625,-0.225
24.5234375,-0.305
24.53125,-0.345
24.5390625,-0.375
24.546875,-0.385
24.5546875,-0.375
24.5625,-0.395
24.5703125,-0.385
24.578125,-0.395
24.5859375,-0.375
24.59375,-0.365
24.6015625,-0.335
24.609375,-0.545
24.6171875,-0.405
24.625,0.645
24.6328125,1.765
24.640625,2.055
24.6484375,0.405
24.65625,-0.725
24.6640625,-0.745
24.671875,-0.455
24.6796875,-0.345
24.6875,-0.345
24.6953125,-0.345
24.703125,-0.325
24.7109375,-0.305
24.71875,-0.295
24.7265625,-0.285
24.734375,-0.275
24.7421875,-0.265
24.75,-0.245
24.7578125,-0.225
24.765625,-0.215
24.7734375,-0.185
24.78125,-0.195
24.7890625,-0.165
24.796875,-0.135
24.8046875,-0.115
24.8125,-0.075
24.8203125,-0.025
24.828125,0.015
24.8359375,0.055
24.84375,0.095
24.8515625,0.105
24.859375,0.095
24.8671875,0.095
24.875,0.105
24.8828125,0.085
24.890625,0.035
24.8984375,-0.005
24.90625,-0.065
24.9140625,-0.125
24.921875,-0.145
24.9296875,-0.155
24.9375,-0.165
24.9453125,-0.185
24.953125,-0.185
24.9609375,-0.175
24.96875,-0.175
24.9765625,-0.155
24.984375,-0.145
24.9921875,-0.135
25,-0.105
25.0078125,-0.095
25.015625,-0.085
25.0234375,-0.095
25.03125,-0.065
25.0390625,-0.075
25.046875,-0.085
25.0546875,-0.085
25.0625,-0.095
25.0703125,-0.115
25.078125,-0.105
25.0859375,-0.105
25.09375,-0.115
25.1015625,-0.075
25.109375,-0.005
25.1171875,0.005
25.125,0.015
25.1328125,0.005
25.140625,-0.015
25.1484375,0.055
25.15625,0.085
25.1640625,0.055
25.171875,0.045
25.1796875,-0.065
25.1875,-0.125
25.1953125,-0.145
25.203125,-0.155
25.2109375,-0.165
25.21875,-0.175
25.2265625,-0.165
25.234375,-0.145
25.2421875,-0.135
25.25,-0.115
25.2578125,-0.095
25.265625,-0.105
25.2734375,-0.265
25.28125,0.105
25.2890625,1.015
25.296875,1.695
25.3046875,1.565
25.3125,0.215
25.3203125,-0.335
25.328125,-0.175
25.3359375,-0.015
25.34375,0.025
25.3515625,0.045
25.359375,0.055
25.3671875,0.085
25.375,0.095
25.3828125,0.105
25.390625,0.115
25.3984375,0.125
25.40625,0.135
25.4140625,0.135
25.421875,0.155
25.4296875,0.165
25.4375,0.175
25.4453125,0.175
25.453125,0.185
25.4609375,0.205
25.46875,0.215
25.4765625,0.215
25.484375,0.245
25.4921875,0.265
25.5,0.285
25.5078125,0.295
25.515625,0.315
25.5234375,0.315
25.53125,0.315
25.5390625,0.315
25.546875,0.295
25.5546875,0.265
25.5625,0.225
25.5703125,0.205
25.578125,0.165
25.5859375,0.145
25.59375,0.135
25.6015625,0.105
25.609375,0.085
25.6171875,0.085
25.625,0.075
25.6328125,0.055
25.640625,0.045
25.6484375,0.055
25.65625,0.055
25.6640625,0.055
25.671875,0.065
25.6796875,0.075
25.6875,0.105
25.6953125,0.095
25.703125,0.075
25.7109375,0.075
25.71875,0.085
25.7265625,0.065
25.734375,0.055
25.7421875,0.055
25.75,0.045
25.7578125,0.045
25.765625,0.025
25.7734375,0.015
25.78125,0.025
25.7890625,0.075
25.796875,-0.005
25.8046875,0.065
25.8125,0.085
25.8203125,0.065
25.828125,0.095
25.8359375,0.125
25.84375,0.105
25.8515625,0.085
25.859375,-0.055
25.8671875,-0.115
25.875,-0.155
25.8828125,-0.185
25.890625,-0.215
25.8984375,-0.205
25.90625,-0.215
25.9140625,-0.235
25.921875,-0.215
25.9296875,-0.215
25.9375,-0.195
25.9453125,-0.245
25.953125,-0.565
25.9609375,0.625
25.96875,1.585
25.9765625,2.085
25.984375,0.815
25.9921875,-0.745
26,-0.825
26.0078125,-0.455
26.015625,-0.305
26.0234375,-0.195
26.03125,-0.145
26.0390625,-0.175
26.046875,-0.205
26.0546875,-0.225
26.0625,-0.215
26.0703125,-0.195
26.078125,-0.195
26.0859375,-0.155
26.09375,-0.155
26.1015625,-0.135
26.109375,-0.135
26.1171875,-0.105
26.125,-0.085
26.1328125,-0.045
26.140625,-0.005
26.1484375,0.005
26.15625,0.065
26.1640625,0.105
26.171875,0.155
26.1796875,0.175
26.1875,0.215
26.1953125,0.225
26.203125,0.215
26.2109375,0.215
26.21875,0.215
26.2265625,0.145
26.234375,0.115
26.2421875,0.045
26.25,0.025
26.2578125,-0.035
26.265625,-0.025
26.2734375,-0.025
26.28125,-0.025
26.2890625,-0.035
26.296875,-0.045
26.3046875,-0.045
26.3125,-0.035
26.3203125,-0.015
26.328125,-0.025
26.3359375,-0.005
26.34375,-0.005
26.3515625,-0.005
26.359375,0.015
26.3671875,-0.025
26.375,0.055
26.3828125,0.045
26.390625,0.015
26.3984375,-0.035
26.40625,-0.075
26.4140625,0.025
26.421875,0.035
26.4296875,0.055
26.4375,0.035
26.4453125,0.005
26.453125,0.005
26.4609375,0.055
26.46875,0.095
26.4765625,0.045
26.484375,0.055
26.4921875,0.115
26.5,0.105
26.5078125,0.095
26.515625,0.035
26.5234375,-0.075
26.53125,-0.105
26.5390625,-0.135
26.546875,-0.185
26.5546875,-0.175
26.5625,-0.185
26.5703125,-0.205
26.578125,-0.215
26.5859375,-0.215
26.59375,-0.215
26.6015625,-0.205
26.609375,-0.315
26.6171875,-0.375
26.625,0.315
26.6328125,1.395
26.640625,1.925
26.6484375,0.625
26.65625,-0.415
26.6640625,-0.605
26.671875,-0.485
26.6796875,-0.335
26.6875,-0.265
26.6953125,-0.275
26.703125,-0.275
26.7109375,-0.235
26.71875,-0.265
26.7265625,-0.265
26.734375,-0.275
26.7421875,-0.245
26.75,-0.235
26.7578125,-0.245
26.765625,-0.255
26.7734375,-0.255
26.78125,-0.245
26.7890625,-0.185
26.796875,-0.175
26.8046875,-0.165
26.8125,-0.125
26.8203125,-0.095
26.828125,-0.025
26.8359375,0.015
26.84375,0.025
26.8515625,0.055
26.859375,0.035
26.8671875,0.025
26.875,0.035
26.8828125,0.015
26.890625,-0.005
26.8984375,-0.085
26.90625,-0.135
26.9140625,-0.165
26.921875,-0.245
26.9296875,-0.305
26.9375,-0.285
26.9453125,-0.315
26.953125,-0.355
26.9609375,-0.375
26.96875,-0.415
26.9765625,-0.415
26.984375,-0.305
26.9921875,-0.275
27,-0.305
27.0078125,-0.285
27.015625,-0.335
27.0234375,-0.305
27.03125,-0.305
27.0390625,-0.275
27.046875,-0.325
27.0546875,-0.305
27.0625,-0.305
27.0703125,-0.285
27.078125,-0.385
27.0859375,-0.355
27.09375,-0.335
27.1015625,-0.355
27.109375,-0.315
27.1171875,-0.205
27.125,-0.235
27.1328125,-0.255
27.140625,-0.285
27.1484375,-0.265
27.15625,-0.185
27.1640625,-0.175
27.171875,-0.215
27.1796875,-0.235
27.1875,-0.305
27.1953125,-0.295
27.203125,-0.375
27.2109375,-0.395
27.21875,-0.375
27.2265625,-0.455
27.234375,-0.465
27.2421875,-0.465
27.25,-0.395
27.2578125,-0.355
27.265625,-0.355
27.2734375,-0.445
27.28125,-0.715
27.2890625,-0.245
27.296875,0.955
27.3046875,2.065
27.3125,1.735
27.3203125,-0.135
27.328125,-0.765
27.3359375,-0.695
27.34375,-0.465
27.3515625,-0.365
27.359375,-0.375
27.3671875,-0.385
27.375,-0.325
27.3828125,-0.315
27.390625,-0.295
27.3984375,-0.265
27.40625,-0.265
27.4140625,-0.265
27.421875,-0.265
27.4296875,-0.225
27.4375,-0.155
27.4453125,-0.175
27.453125,-0.145
27.4609375,-0.125
27.46875,-0.125
27.4765625,-0.075
27.484375,-0.005
27.4921875,0.055
27.5,0.095
27.5078125,0.115
27.515625,0.125
27.5234375,0.105
27.53125,0.175
27.5390625,0.165
27.546875,0.155
27.5546875,0.125
27.5625,0.065
27.5703125,0.035
27.578125,-0.025
27.5859375,-0.035
27.59375,-0.035
27.6015625,-0.115
27.609375,-0.155
27.6171875,-0.165
27.625,-0.185
27.6328125,-0.145
27.640625,-0.125
27.6484375,-0.115
27.65625,-0.075
27.6640625,-0.075
27.671875,-0.065
27.6796875,-0.085
27.6875,-0.055
27.6953125,-0.045
27.703125,-0.025
27.7109375,-0.035
27.71875,-0.025
27.7265625,-0.055
27.734375,-0.035
27.7421875,-0.045
27.75,-0.075
27.7578125,-0.055
27.765625,-0.055
27.7734375,-0.095
27.78125,-0.105
27.7890625,-0.045
27.796875,-0.005
27.8046875,-0.005
27.8125,0.005
27.8203125,-0.015
27.828125,-0.015
27.8359375,0.065
27.84375,0.105
27.8515625,0.025
27.859375,0.045
27.8671875,-0.085
27.875,-0.165
27.8828125,-0.135
27.890625,-0.165
27.8984375,-0.185
27.90625,-0.185
27.9140625,-0.215
27.921875,-0.195
27.9296875,-0.195
27.9375,-0.185
27.9453125,-0.155
27.953125,-0.125
27.9609375,-0.355
27.96875,-0.045
27.9765625,1.075
27.984375,2.045
27.9921875,2.075
28,0.275
28.0078125,-0.645
28.015625,-0.565
28.0234375,-0.275
28.03125,-0.205
28.0390625,-0.175
28.046875,-0.175
28.0546875,-0.155
28.0625,-0.155
28.0703125,-0.155
28.078125,-0.125
28.0859375,-0.115
28.09375,-0.135
28.1015625,-0.095
28.109375,-0.085
28.1171875,-0.075
28.125,-0.055
28.1328125,-0.025
28.140625,-0.015
28.1484375,-0.005
28.15625,0.035
28.1640625,0.075
28.171875,0.115
28.1796875,0.155
28.1875,0.205
28.1953125,0.255
28.203125,0.295
28.2109375,0.275
28.21875,0.295
28.2265625,0.275
28.234375,0.265
28.2421875,0.185
28.25,0.115
28.2578125,0.045
28.265625,-0.005
28.2734375,-0.035
28.28125,-0.055
28.2890625,-0.045
28.296875,-0.055
28.3046875,-0.065
28.3125,-0.085
28.3203125,-0.075
28.328125,-0.075
28.3359375,-0.085
28.34375,-0.065
28.3515625,-0.035
28.359375,-0.035
28.3671875,-0.035
28.375,-0.025
28.3828125,-0.005
28.390625,0.005
28.3984375,0.015
28.40625,0.015
28.4140625,0.015
28.421875,-0.005
28.4296875,-0.005
28.4375,0.015
28.4453125,-0.005
28.453125,-0.015
28.4609375,-0.035
28.46875,0.035
28.4765625,0.065
28.484375,0.075
28.4921875,0.105
28.5,0.075
28.5078125,0.085
28.515625,0.115
28.5234375,0.125
28.53125,0.125
28.5390625,0.085
28.546875,-0.005
28.5546875,-0.055
28.5625,-0.095
28.5703125,-0.145
28.578125,-0.145
28.5859375,-0.135
28.59375,-0.125
28.6015625,-0.135
28.609375,-0.125
28.6171875,-0.135
28.625,-0.135
28.6328125,-0.105
28.640625,-0.235
28.6484375,-0.125
28.65625,0.735
28.6640625,1.725
28.671875,2.075
28.6796875,0.815
28.6875,-0.445
28.6953125,-0.575
28.703125,-0.315
28.7109375,-0.155
28.71875,-0.145
28.7265625,-0.165
28.734375,-0.145
28.7421875,-0.155
28.75,-0.125
28.7578125,-0.105
28.765625,-0.095
28.7734375,-0.105
28.78125,-0.105
28.7890625,-0.075
28.796875,-0.085
28.8046875,-0.065
28.8125,-0.035
28.8203125,-0.025
28.828125,-0.025
28.8359375,0.025
28.84375,0.035
28.8515625,0.075
28.859375,0.145
28.8671875,0.225
28.875,0.255
28.8828125,0.275
28.890625,0.265
28.8984375,0.275
28.90625,0.275
28.9140625,0.235
28.921875,0.155
28.9296875,0.085
28.9375,0.005
28.9453125,-0.045
28.953125,-0.045
28.9609375,-0.105
28.96875,-0.135
28.9765625,-0.125
28.984375,-0.135
28.9921875,-0.125
29,-0.125
29.0078125,-0.145
29.015625,-0.145
29.0234375,-0.145
29.03125,-0.135
29.0390625,-0.115
29.046875,-0.105
29.0546875,-0.115
29.0625,-0.095
29.0703125,-0.085
29.078125,-0.085
29.0859375,-0.095
29.09375,-0.085
29.1015625,-0.115
29.109375,-0.115
29.1171875,-0.095
29.125,-0.075
29.1328125,-0.095
29.140625,-0.105
29.1484375,-0.125
29.15625,-0.145
29.1640625,-0.125
29.171875,-0.125
29.1796875,-0.145
29.1875,-0.155
29.1953125,-0.115
29.203125,-0.055
29.2109375,-0.045
29.21875,-0.015
29.2265625,-0.045
29.234375,-0.055
29.2421875,-0.015
29.25,0.035
29.2578125,-0.005
29.265625,-0.035
29.2734375,-0.145
29.28125,-0.195
29.2890625,-0.235
29.296875,-0.265
29.3046875,-0.285
29.3125,-0.305
29.3203125,-0.305
29.328125,-0.305
29.3359375,-0.295
29.34375,-0.305
29.3515625,-0.295
29.359375,-0.275
29.3671875,-0.435
29.375,-0.325
29.3828125,0.645
29.390625,1.665
29.3984375,2.105
29.40625,0.845
29.4140625,-0.615
29.421875,-0.795
29.4296875,-0.525
29.4375,-0.355
29.4453125,-0.345
29.453125,-0.345
29.4609375,-0.345
29.46875,-0.315
29.4765625,-0.315
29.484375,-0.315
29.4921875,-0.295
29.5,-0.285
29.5078125,-0.285
29.515625,-0.265
29.5234375,-0.265
29.53125,-0.245
29.5390625,-0.245
29.546875,-0.245
29.5546875,-0.185
29.5625,-0.155
29.5703125,-0.135
29.578125,-0.105
29.5859375,-0.065
29.59375,0.005
29.6015625,0.055
29.609375,0.095
29.6171875,0.105
29.625,0.125
29.6328125,0.125
29.640625,0.095
29.6484375,0.045
29.65625,-0.025
29.6640625,-0.095
29.671875,-0.185
29.6796875,-0.225
29.6875,-0.265
29.6953125,-0.285
29.703125,-0.295
29.7109375,-0.295
29.71875,-0.305
29.7265625,-0.325
29.734375,-0.315
29.7421875,-0.345
29.75,-0.335
29.7578125,-0.295
29.765625,-0.295
29.7734375,-0.285
29.78125,-0.295
29.7890625,-0.285
29.796875,-0.275
29.8046875,-0.245
29.8125,-0.245
29.8203125,-0.255
29.828125,-0.245
29.8359375,-0.245
29.84375,-0.255
29.8515625,-0.245
29.859375,-0.275
29.8671875,-0.265
29.875,-0.275
29.8828125,-0.255
29.890625,-0.285
29.8984375,-0.285
29.90625,-0.295
29.9140625,-0.235
29.921875,-0.185
29.9296875,-0.175
29.9375,-0.155
29.9453125,-0.185
29.953125,-0.195
29.9609375,-0.125
29.96875,-0.105
29.9765625,-0.125
29.984375,-0.165
29.9921875,-0.275
30,-0.325
30.0078125,-0.345
30.015625,-0.355
30.0234375,-0.385
30.03125,-0.385
30.0390625,-0.355
30.046875,-0.365
30.0546875,-0.365
30.0625,-0.355
30.0703125,-0.365
30.078125,-0.335
30.0859375,-0.515
30.09375,-0.425
30.1015625,0.565
30.109375,1.635
30.1171875,2.115
30.125,0.765
30.1328125,-0.655
30.140625,-0.825
30.1484375,-0.595
30.15625,-0.415
30.1640625,-0.355
30.171875,-0.355
30.1796875,-0.345
30.1875,-0.315
30.1953125,-0.305
30.203125,-0.285
30.2109375,-0.285
30.21875,-0.265
30.2265625,-0.255
30.234375,-0.225
30.2421875,-0.235
30.25,-0.205
30.2578125,-0.175
30.265625,-0.145
30.2734375,-0.125
30.28125,-0.085
30.2890625,-0.075
30.296875,-0.035
30.3046875,0.015
30.3125,0.075
30.3203125,0.135
30.328125,0.185
30.3359375,0.175
30.34375,0.195
30.3515625,0.185
30.359375,0.165
30.3671875,0.115
30.375,0.045
30.3828125,-0.015
30.390625,-0.085
30.3984375,-0.125
30.40625,-0.155
30.4140625,-0.165
30.421875,-0.185
30.4296875,-0.185
30.4375,-0.175
30.4453125,-0.185
30.453125,-0.185
30.4609375,-0.175
30.46875,-0.175
30.4765625,-0.185
30.484375,-0.155
30.4921875,-0.185
30.5,-0.145
30.5078125,-0.115
30.515625,-0.095
30.5234375,-0.075
30.53125,-0.075
30.5390625,-0.085
30.546875,-0.075
30.5546875,-0.085
30.5625,-0.095
30.5703125,-0.095
30.578125,-0.095
30.5859375,-0.095
30.59375,-0.115
30.6015625,-0.115
30.609375,-0.115
30.6171875,-0.125
30.625,-0.105
30.6328125,-0.095
30.640625,-0.115
30.6484375,-0.145
30.65625,-0.135
30.6640625,-0.145
30.671875,-0.085
30.6796875,-0.005
30.6875,0.015
30.6953125,0.025
30.703125,0.005
30.7109375,-0.005
30.71875,0.045
30.7265625,0.075
30.734375,0.045
30.7421875,0.015
30.75,-0.055
30.7578125,-0.115
30.765625,-0.145
30.7734375,-0.205
30.78125,-0.195
30.7890625,-0.205
30.796875,-0.195
30.8046875,-0.195
30.8125,-0.175
30.8203125,-0.185
30.828125,-0.165
30.8359375,-0.115
30.84375,-0.285
30.8515625,-0.225
30.859375,0.715
30.8671875,1.815
30.875,2.345
30.8828125,1.365
30.890625,-0.415
30.8984375,-0.675
30.90625,-0.355
30.9140625,-0.205
30.921875,-0.165
30.9296875,-0.155
30.9375,-0.135
30.9453125,-0.135
30.953125,-0.135
30.9609375,-0.115
30.96875,-0.105
30.9765625,-0.095
30.984375,-0.085
30.9921875,-0.075
31,-0.075
31.0078125,-0.065
31.015625,-0.025
31.0234375,0.005
31.03125,0.015
31.0390625,0.035
31.046875,0.075
31.0546875,0.095
31.0625,0.155
31.0703125,0.215
31.078125,0.265
31.0859375,0.315
31.09375,0.345
31.1015625,0.375
31.109375,0.375
31.1171875,0.365
31.125,0.305
31.1328125,0.225
31.140625,0.175
31.1484375,0.065
31.15625,0.035
31.1640625,-0.005
31.171875,-0.045
31.1796875,-0.045
31.1875,-0.055
31.1953125,-0.045
31.203125,-0.055
31.2109375,-0.065
31.21875,-0.055
31.2265625,-0.065
31.234375,-0.055
31.2421875,-0.075
31.25,-0.065
31.2578125,-0.035
31.265625,-0.025
31.2734375,-0.025
31.28125,-0.015
31.2890625,-0.015
31.296875,-0.005
31.3046875,0.005
31.3125,-0.025
31.3203125,-0.005
31.328125,0.025
31.3359375,0.015
31.34375,-0.015
31.3515625,-0.005
31.359375,-0.025
31.3671875,-0.035
31.375,-0.055
31.3828125,-0.035
31.390625,-0.045
31.3984375,-0.025
31.40625,-0.045
31.4140625,-0.055
31.421875,-0.045
31.4296875,-0.045
31.4375,-0.045
31.4453125,-0.055
31.453125,-0.075
31.4609375,-0.055
31.46875,-0.035
31.4765625,0.055
31.484375,0.055
31.4921875,0.085
31.5,0.075
31.5078125,0.055
31.515625,0.115
31.5234375,0.145
31.53125,0.115
31.5390625,0.095
31.546875,0.015
31.5546875,-0.055
31.5625,-0.085
31.5703125,-0.135
31.578125,-0.145
31.5859375,-0.125
31.59375,-0.145
31.6015625,-0.125
31.609375,-0.125
31.6171875,-0.135
31.625,-0.105
31.6328125,-0.085
31.640625,-0.265
31.6484375,-0.115
31.65625,0.935
31.6640625,1.895
31.671875,2.355
31.6796875,1.355
31.6875,-0.455
31.6953125,-0.625
31.703125,-0.295
31.7109375,-0.135
31.71875,-0.095
31.7265625,-0.115
31.734375,-0.115
31.7421875,-0.105
31.75,-0.085
31.7578125,-0.085
31.765625,-0.075
31.7734375,-0.085
31.78125,-0.055
31.7890625,-0.025
31.796875,-0.015
31.8046875,-0.005
31.8125,0.005
31.8203125,0.035
31.828125,0.045
31.8359375,0.055
31.84375,0.085
31.8515625,5
31.859375,5
31.8671875,5
31.875,5
31.8828125,5
31.890625,5
31.8984375,0.385
31.90625,0.385
31.9140625,0.375
31.921875,0.345
31.9296875,0.275
31.9375,0.205
31.9453125,0.135
31.953125,0.075
31.9609375,0.025
31.96875,0.015
31.9765625,-0.015
31.984375,-0.025
31.9921875,-0.035
32,-0.025
32.0078125,-0.035
32.015625,-0.015
32.0234375,-0.045
32.03125,-0.045
32.0390625,-0.035
32.046875,-0.035
32.0546875,-0.025
32.0625,-0.015
32.0703125,-0.015
32.078125,0.015
32.0859375,0.015
32.09375,0.015
32.1015625,0.005
32.109375,0.005
32.1171875,0.005
32.125,0.005
32.1328125,0.005
32.140625,-0.015
32.1484375,-0.005
32.15625,-0.025
32.1640625,-0.025
32.171875,-0.035
32.1796875,-0.055
32.1875,-0.045
32.1953125,-0.065
32.203125,-0.055
32.2109375,-0.065
32.21875,-0.065
32.2265625,-0.055
32.234375,-0.075
32.2421875,-0.085
32.25,-0.065
32.2578125,-0.085
32.265625,-0.075
32.2734375,-0.075
32.28125,-0.075
32.2890625,-0.045
32.296875,0.045
32.3046875,0.055
32.3125,0.075
32.3203125,0.045
32.328125,0.035
32.3359375,0.095
32.34375,0.135
32.3515625,0.085
32.359375,0.065
32.3671875,-0.015
32.375,-0.075
32.3828125,-0.105
32.390625,-0.155
32.3984375,-0.155
32.40625,-0.175
32.4140625,-0.165
32.421875,-0.155
32.4296875,-0.165
32.4375,-0.135
32.4453125,-0.145
32.453125,-0.115
32.4609375,-0.285
32.46875,-0.165
32.4765625,0.795
32.484375,1.865
32.4921875,2.295
32.5,0.985
32.5078125,-0.535
32.515625,-0.595
32.5234375,-0.295
32.53125,-0.165
32.5390625,-0.145
32.546875,-0.155
32.5546875,-0.165
32.5625,-0.125
32.5703125,-0.145
32.578125,-0.115
32.5859375,-0.105
32.59375,-0.105
32.6015625,-0.085
32.609375,-0.085
32.6171875,-0.065
32.625,-0.055
32.6328125,-0.035
32.640625,-0.045
32.6484375,-0.015
32.65625,0.015
32.6640625,0.055
32.671875,0.085
32.6796875,0.145
32.6875,0.195
32.6953125,0.235
32.703125,0.275
32.7109375,0.305
32.71875,0.315
32.7265625,0.315
32.734375,0.295
32.7421875,0.255
32.75,0.205
32.7578125,0.135
32.765625,0.055
32.7734375,0.005
32.78125,-0.045
32.7890625,-0.055
32.796875,-0.075
32.8046875,-0.075
32.8125,-0.075
32.8203125,-0.065
32.828125,-0.085
32.8359375,-0.085
32.84375,-0.065
32.8515625,-0.065
32.859375,-0.055
32.8671875,-0.045
32.875,-0.045
32.8828125,-0.045
32.890625,-0.015
32.8984375,-0.035
32.90625,-0.055
32.9140625,-0.015
32.921875,-0.015
32.9296875,-0.025
32.9375,-0.015
32.9453125,-0.025
32.953125,-0.025
32.9609375,-0.045
32.96875,-0.035
32.9765625,-0.055
32.984375,-0.055
32.9921875,-0.055
33,-0.075
33.0078125,-0.085
33.015625,-0.085
33.0234375,-0.095
33.03125,-0.095
33.0390625,-0.115
33.046875,-0.105
33.0546875,-0.115
33.0625,-0.125
33.0703125,-0.115
33.078125,-0.115
33.0859375,-0.115
33.09375,-0.105
33.1015625,-0.115
33.109375,-0.125
33.1171875,-0.125
33.125,-0.065
33.1328125,-0.015
33.140625,0.005
33.1484375,0.025
33.15625,-0.025
33.1640625,-0.005
33.171875,0.055
33.1796875,0.065
33.1875,0.055
33.1953125,-0.015
33.203125,-0.115
33.2109375,-0.155
33.21875,-0.175
33.2265625,-0.215
33.234375,-0.205
33.2421875,-0.215
33.25,-0.215
33.2578125,-0.205
33.265625,-0.205
33.2734375,-0.205
33.28125,-0.165
33.2890625,-0.235
33.296875,-0.395
33.3046875,0.135
33.3125,1.295
33.3203125,2.115
33.328125,1.785
33.3359375,-0.045
33.34375,-0.725
33.3515625,-0.495
33.359375,-0.275
33.3671875,-0.205
33.375,-0.215
33.3828125,-0.215
33.390625,-0.225
33.3984375,-0.195
33.40625,-0.175
33.4140625,-0.175
33.421875,-0.165
33.4296875,-0.155
33.4375,-0.135
33.4453125,-0.135
33.453125,-0.125
33.4609375,-0.105
33.46875,-0.075
33.4765625,-0.055
33.484375,-0.035
33.4921875,-0.015
33.5,0.005
33.5078125,0.035
33.515625,0.095
33.5234375,0.145
33.53125,0.195
33.5390625,0.235
33.546875,0.245
33.5546875,0.235
33.5625,0.255
33.5703125,0.225
33.578125,0.155
33.5859375,0.075
33.59375,0.025
33.6015625,-0.035
33.609375,-0.085
33.6171875,-0.105
33.625,-0.105
33.6328125,-0.125
33.640625,-0.125
33.6484375,-0.135
33.65625,-0.115
33.6640625,-0.105
33.671875,-0.145
33.6796875,-0.145
33.6875,-0.115
33.6953125,-0.125
33.703125,-0.115
33.7109375,-0.095
33.71875,-0.075
33.7265625,-0.085
33.734375,-0.085
33.7421875,-0.105
33.75,-0.085
33.7578125,-0.095
33.765625,-0.115
33.7734375,-0.125
33.78125,-0.145
33.7890625,-0.155
33.796875,-0.195
33.8046875,-0.175
33.8125,-0.155
33.8203125,-0.155
33.828125,-0.195
33.8359375,-0.195
33.84375,-0.195
33.8515625,-0.205
33.859375,-0.195
33.8671875,-0.195
33.875,-0.235
33.8828125,-0.225
33.890625,-0.235
33.8984375,-0.225
33.90625,-0.235
33.9140625,-0.255
33.921875,-0.195
33.9296875,-0.155
33.9375,-0.145
33.9453125,-0.135
33.953125,-0.165
33.9609375,-0.115
33.96875,-0.125
33.9765625,-0.025
33.984375,-0.085
33.9921875,-0.355
34,-0.275
34.0078125,-0.285
34.015625,-0.325
34.0234375,-0.385
34.03125,-0.365
34.0390625,-0.395
34.046875,-0.425
34.0546875,-0.435
34.0625,-0.415
34.0703125,-0.325
34.078125,-0.405
34.0859375,-0.465
34.09375,-0.585
34.1015625,0.035
34.109375,1.025
34.1171875,1.985
34.125,1.675
34.1328125,-0.245
34.140625,-0.895
34.1484375,-0.765
34.15625,-0.445
34.1640625,-0.405
34.171875,-0.425
34.1796875,-0.365
34.1875,-0.315
34.1953125,-0.315
34.203125,-0.355
34.2109375,-0.335
34.21875,-0.335
34.2265625,-0.325
34.234375,-0.305
34.2421875,-0.275
34.25,-0.235
34.2578125,-0.305
34.265625,-0.115
34.2734375,-0.155
34.28125,-0.185
34.2890625,-0.125
34.296875,-0.095
34.3046875,-0.055
34.3125,0.005
34.3203125,0.045
34.328125,0.135
34.3359375,0.125
34.34375,0.155
34.3515625,0.115
34.359375,0.155
34.3671875,0.125
34.375,0.105
34.3828125,0.005
34.390625,-0.075
34.3984375,-0.135
34.40625,-0.155
34.4140625,-0.175
34.421875,-0.195
34.4296875,-0.215
34.4375,-0.195
34.4453125,-0.235
34.453125,-0.175
34.4609375,-0.175
34.46875,-0.175
34.4765625,-0.255
34.484375,-0.115
34.4921875,-0.125
34.5,-0.125
34.5078125,-0.135
34.515625,-0.135
34.5234375,-0.135
34.53125,-0.125
34.5390625,-0.095
34.546875,-0.135
34.5546875,-0.185
34.5625,-0.025
34.5703125,-0.175
34.578125,-0.225
34.5859375,-0.225
34.59375,-0.165
34.6015625,-0.175
34.609375,-0.175
34.6171875,-0.175
34.625,-0.195
34.6328125,-0.195
34.640625,-0.185
34.6484375,-0.155
34.65625,-0.235
34.6640625,-0.295
34.671875,-0.045
34.6796875,-0.135
34.6875,-0.105
34.6953125,-0.095
34.703125,-0.065
34.7109375,-0.105
34.71875,-0.055
34.7265625,-0.045
34.734375,-0.045
34.7421875,-0.065
34.75,-0.135
34.7578125,-0.215
34.765625,-0.225
34.7734375,-0.325
34.78125,-0.315
34.7890625,-0.315
34.796875,-0.435
34.8046875,-0.175
34.8125,-0.305
34.8203125,-0.345
34.828125,-0.355
34.8359375,-0.355
34.84375,-0.505
34.8515625,-0.295
34.859375,0.785
34.8671875,1.835
34.875,1.845
34.8828125,0.345
34.890625,-0.705
34.8984375,-0.665
34.90625,-0.615
34.9140625,-0.445
34.921875,-0.415
34.9296875,-0.415
34.9375,-0.415
34.9453125,-0.475
34.953125,-0.375
34.9609375,-0.305
34.96875,-0.295
34.9765625,-0.365
34.984375,-0.275
34.9921875,-0.285
35,-0.295
35.0078125,-0.265
35.015625,-0.295
35.0234375,-0.185
35.03125,-0.215
35.0390625,-0.185
35.046875,-0.115
35.0546875,-0.105
35.0625,-0.025
35.0703125,-0.035
35.078125,0.095
35.0859375,0.135
35.09375,0.105
35.1015625,0.175
35.109375,0.175
35.1171875,0.085
35.125,0.025
35.1328125,0.005
35.140625,-0.025
35.1484375,-0.075
35.15625,-0.115
35.1640625,-0.195
35.171875,-0.145
35.1796875,-0.185
35.1875,-0.145
35.1953125,-0.155
35.203125,-0.175
35.2109375,-0.155
35.21875,-0.165
35.2265625,-0.195
35.234375,-0.075
35.2421875,-0.065
35.25,-0.095
35.2578125,-0.055
35.265625,-0.105
35.2734375,-0.065
35.28125,-0.055
35.2890625,-0.075
35.296875,-0.045
35.3046875,-0.115
35.3125,0.045
35.3203125,-0.015
35.328125,-0.095
35.3359375,-0.055
35.34375,-0.055
35.3515625,-0.055
35.359375,-0.085
35.3671875,-0.085
35.375,-0.105
35.3828125,-0.075
35.390625,-0.035
35.3984375,-0.045
35.40625,-0.055
35.4140625,0.005
35.421875,0.045
35.4296875,0.045
35.4375,0.055
35.4453125,0.115
35.453125,0.115
35.4609375,0.105
35.46875,0.105
35.4765625,-0.045
35.484375,-0.095
35.4921875,-0.145
35.5,-0.155
35.5078125,-0.215
35.515625,-0.175
35.5234375,-0.205
35.53125,-0.145
35.5390625,-0.135
35.546875,-0.235
35.5546875,-0.165
35.5625,-0.165
35.5703125,-0.345
35.578125,-0.105
35.5859375,1.005
35.59375,1.965
35.6015625,2.215
35.609375,0.635
35.6171875,-0.685
35.625,-0.595
35.6328125,-0.295
35.640625,-0.215
35.6484375,-0.245
35.65625,-0.165
35.6640625,-0.165
35.671875,-0.225
35.6796875,-0.155
35.6875,-0.155
35.6953125,-0.135
35.703125,-0.155
35.7109375,-0.145
35.71875,-0.115
35.7265625,-0.065
35.734375,-0.095
35.7421875,-0.075
35.75,-0.055
35.7578125,-0.045
35.765625,-0.065
35.7734375,0.125
35.78125,0.075
35.7890625,0.175
35.796875,0.145
35.8046875,0.265
35.8125,0.285
35.8203125,0.255
35.828125,0.235
35.8359375,0.275
35.84375,0.255
35.8515625,0.155
35.859375,0.165
35.8671875,0.015
35.875,-0.055
35.8828125,-0.045
35.890625,-0.075
35.8984375,-0.115
35.90625,-0.175
35.9140625,-0.025
35.921875,-0.125
35.9296875,-0.175
35.9375,-0.165
35.9453125,-0.155
35.953125,-0.185
35.9609375,-0.085
35.96875,-0.095
35.9765625,-0.115
35.984375,-0.115
35.9921875,-0.035
36,-0.135
36.0078125,-0.075
36.015625,-0.115
36.0234375,-0.125
36.03125,-0.075
36.0390625,-0.035
36.046875,-0.125
36.0546875,-0.085
36.0625,-0.105
36.0703125,-0.095
36.078125,-0.085
36.0859375,-0.105
36.09375,-0.075
36.1015625,0.005
36.109375,-0.025
36.1171875,0.005
36.125,0.015
36.1328125,-0.015
36.140625,0.065
36.1484375,0.085
36.15625,0.055
36.1640625,0.045
36.171875,-0.105
36.1796875,-0.105
36.1875,-0.095
36.1953125,-0.075
36.203125,-0.195
36.2109375,-0.225
36.21875,-0.205
36.2265625,-0.205
36.234375,-0.225
36.2421875,-0.175
36.25,-0.145
36.2578125,-0.135
36.265625,-0.245
36.2734375,-0.085
36.28125,0.785
36.2890625,1.525
36.296875,1.865
36.3046875,0.955
36.3125,-0.285
36.3203125,-0.505
36.328125,-0.325
36.3359375,-0.235
36.34375,-0.175
36.3515625,-0.175
36.359375,-0.175
36.3671875,-0.165
36.375,-0.145
36.3828125,-0.175
36.390625,-0.175
36.3984375,-0.155
36.40625,-0.145
36.4140625,-0.145
36.421875,-0.135
36.4296875,-0.065
36.4375,-0.085
36.4453125,-0.125
36.453125,-0.065
36.4609375,-0.045
36.46875,-0.035
36.4765625,0.015
36.484375,0.075
36.4921875,0.165
36.5,0.195
36.5078125,0.165
36.515625,0.235
36.5234375,0.425
36.53125,0.235
36.5390625,0.175
36.546875,0.115
36.5546875,0.105
36.5625,0.055
36.5703125,-0.045
36.578125,-0.075
36.5859375,-0.105
36.59375,-0.105
36.6015625,-0.115
36.609375,-0.145
36.6171875,-0.135
36.625,-0.145
36.6328125,-0.115
36.640625,-0.165
36.6484375,-0.145
36.65625,-0.115
36.6640625,-0.095
36.671875,-0.175
36.6796875,0.055
36.6875,-0.005
36.6953125,-0.125
36.703125,-0.065
36.7109375,-0.045
36.71875,-0.035
36.7265625,-0.045
36.734375,-0.035
36.7421875,-0.065
36.75,-0.005
36.7578125,-0.095
36.765625,-0.055
36.7734375,-0.085
36.78125,-0.205
36.7890625,0.185
36.796875,0.035
36.8046875,0.015
36.8125,0.105
36.8203125,0.055
36.828125,0.085
36.8359375,0.155
36.84375,0.095
36.8515625,0.115
36.859375,0.125
36.8671875,-0.125
36.875,-0.195
36.8828125,-0.075
36.890625,-0.175
36.8984375,-0.185
36.90625,-0.165
36.9140625,-0.135
36.921875,-0.165
36.9296875,-0.115
36.9375,-0.175
36.9453125,-0.165
36.953125,-0.135
36.9609375,-0.335
36.96875,-0.035
36.9765625,1.025
36.984375,2.005
36.9921875,2.105
37,0.445
37.0078125,-0.655
37.015625,-0.655
37.0234375,-0.135
37.03125,-0.165
37.0390625,-0.235
37.046875,-0.205
37.0546875,-0.195
37.0625,-0.135
37.0703125,-0.165
37.078125,-0.145
37.0859375,-0.115
37.09375,-0.135
37.1015625,-0.085
37.109375,-0.105
37.1171875,-0.095
37.125,-0.065
37.1328125,-0.135
37.140625,-0.025
37.1484375,-0.065
37.15625,-0.015
37.1640625,0.035
37.171875,0.065
37.1796875,0.095
37.1875,0.205
37.1953125,0.245
37.203125,0.175
37.2109375,0.205
37.21875,0.265
37.2265625,0.265
37.234375,0.265
37.2421875,0.235
37.25,0.135
37.2578125,0.065
37.265625,-0.005
37.2734375,0.025
37.28125,-0.065
37.2890625,-0.115
37.296875,-0.065
37.3046875,-0.105
37.3125,-0.135
37.3203125,-0.115
37.328125,-0.105
37.3359375,-0.185
37.34375,-0.055
37.3515625,-0.105
37.359375,-0.075
37.3671875,-0.035
37.375,-0.115
37.3828125,-0.085
37.390625,-0.115
37.3984375,-0.115
37.40625,-0.075
37.4140625,-0.055
37.421875,-0.055
37.4296875,-0.105
37.4375,-0.105
37.4453125,-0.095
37.453125,-0.135
37.4609375,-0.115
37.46875,-0.095
37.4765625,-0.015
37.484375,0.015
37.4921875,-0.045
37.5,-0.085
37.5078125,0.005
37.515625,0.005
37.5234375,-0.015
37.53125,-0.025
37.5390625,-0.105
37.546875,-0.215
37.5546875,-0.235
37.5625,-0.275
37.5703125,-0.295
37.578125,-0.295
37.5859375,-0.305
37.59375,-0.305
37.6015625,-0.315
37.609375,-0.325
37.6171875,-0.325
37.625,-0.265
37.6328125,-0.355
37.640625,-0.505
37.6484375,0.085
37.65625,1.175
37.6640625,2.015
37.671875,1.425
37.6796875,-0.285
37.6875,-0.855
37.6953125,-0.625
37.703125,-0.385
37.7109375,-0.365
37.71875,-0.375
37.7265625,-0.335
37.734375,-0.275
37.7421875,-0.295
37.75,-0.275
37.7578125,-0.315
37.765625,-0.265
37.7734375,-0.235
37.78125,-0.255
37.7890625,-0.235
37.796875,-0.245
37.8046875,-0.215
37.8125,-0.225
37.8203125,-0.195
37.828125,-0.115
37.8359375,-0.145
37.84375,-0.085
37.8515625,-0.025
37.859375,0.015
37.8671875,0.075
37.875,0.115
37.8828125,0.115
37.890625,0.125
37.8984375,0.155
37.90625,0.145
37.9140625,0.075
37.921875,-0.005
37.9296875,-0.065
37.9375,-0.125
37.9453125,-0.175
37.953125,-0.245
37.9609375,-0.245
37.96875,-0.255
37.9765625,-0.275
37.984375,-0.285
37.9921875,-0.285
38,-0.265
38.0078125,-0.295
38.015625,-0.285
38.0234375,-0.285
38.03125,-0.265
38.0390625,-0.245
38.046875,-0.275
38.0546875,-0.235
38.0625,-0.225
38.0703125,-0.245
38.078125,-0.255
38.0859375,-0.255
38.09375,-0.275
38.1015625,-0.295
38.109375,-0.295
38.1171875,-0.295
38.125,-0.265
38.1328125,-0.265
38.140625,-0.245
38.1484375,-0.215
38.15625,-0.205
38.1640625,-0.195
38.171875,-0.215
38.1796875,-0.195
38.1875,-0.145
38.1953125,-0.165
38.203125,-0.165
38.2109375,-0.235
38.21875,-0.355
38.2265625,-0.405
38.234375,-0.425
38.2421875,-0.455
38.25,-0.485
38.2578125,-0.515
38.265625,-0.485
38.2734375,-0.495
38.28125,-0.495
38.2890625,-0.495
38.296875,-0.505
38.3046875,-0.505
38.3125,-0.705
38.3203125,-0.485
38.328125,0.605
38.3359375,1.765
38.34375,1.795
38.3515625,0.005
38.359375,-1.005
38.3671875,-0.975
38.375,-0.735
38.3828125,-0.615
38.390625,-0.585
38.3984375,-0.585
38.40625,-0.575
38.4140625,-0.565
38.421875,-0.565
38.4296875,-0.575
38.4375,-0.565
38.4453125,-0.575
38.453125,-0.545
38.4609375,-0.535
38.46875,-0.535
38.4765625,-0.505
38.484375,-0.495
38.4921875,-0.445
38.5,-0.435
38.5078125,-0.415
38.515625,-0.375
38.5234375,-0.345
38.53125,-0.285
38.5390625,-0.235
38.546875,-0.185
38.5546875,-0.155
38.5625,-0.155
38.5703125,-0.145
38.578125,-0.145
38.5859375,-0.165
38.59375,-0.225
38.6015625,-0.285
38.609375,-0.345
38.6171875,-0.415
38.625,-0.435
38.6328125,-0.475
38.640625,-0.495
38.6484375,-0.515
38.65625,-0.495
38.6640625,-0.505
38.671875,-0.475
38.6796875,-0.475
38.6875,-0.465
38.6953125,-0.475
38.703125,-0.455
38.7109375,-0.445
38.71875,-0.435
38.7265625,-0.425
38.734375,-0.405
38.7421875,-0.395
38.75,-0.375
38.7578125,-0.365
38.765625,-0.365
38.7734375,-0.375
38.78125,-0.355
38.7890625,-0.355
38.796875,-0.345
38.8046875,-0.295
38.8125,-0.285
38.8203125,-0.265
38.828125,-0.275
38.8359375,-0.255
38.84375,-0.205
38.8515625,-0.205
38.859375,-0.215
38.8671875,-0.255
38.875,-0.345
38.8828125,-0.385
38.890625,-0.415
38.8984375,-0.475
38.90625,-0.465
38.9140625,-0.435
38.921875,-0.445
38.9296875,-0.465
38.9375,-0.415
38.9453125,-0.375
38.953125,-0.385
38.9609375,-0.355
38.96875,-0.525
38.9765625,-0.395
38.984375,0.575
38.9921875,1.655
39,2.045
39.0078125,0.685
39.015625,-0.725
39.0234375,-0.845
39.03125,-0.535
39.0390625,-0.385
39.046875,-0.375
39.0546875,-0.375
39.0625,-0.335
39.0703125,-0.325
39.078125,-0.325
39.0859375,-0.325
39.09375,-0.295
39.1015625,-0.265
39.109375,-0.265
39.1171875,-0.245
39.125,-0.225
39.1328125,-0.205
39.140625,-0.195
39.1484375,-0.205
39.15625,-0.165
39.1640625,-0.155
39.171875,-0.095
39.1796875,-0.045
39.1875,0.025
39.1953125,0.055
39.203125,0.105
39.2109375,0.145
39.21875,0.165
39.2265625,0.175
39.234375,0.155
39.2421875,0.145
39.25,0.095
39.2578125,0.005
39.265625,-0.055
39.2734375,-0.105
39.28125,-0.145
39.2890625,-0.195
39.296875,-0.185
39.3046875,-0.205
39.3125,-0.215
39.3203125,-0.185
39.328125,-0.185
39.3359375,-0.185
39.34375,-0.175
39.3515625,-0.195
39.359375,-0.185
39.3671875,-0.185
39.375,-0.165
39.3828125,-0.165
39.390625,-0.125
39.3984375,-0.105
39.40625,-0.075
39.4140625,-0.075
39.421875,-0.105
39.4296875,-0.105
39.4375,-0.095
39.4453125,-0.075
39.453125,-0.085
39.4609375,-0.115
39.46875,-0.095
39.4765625,-0.115
39.484375,-0.075
39.4921875,-0.015
39.5,0.015
39.5078125,0.045
39.515625,-0.005
39.5234375,0.005
39.53125,0.065
39.5390625,0.085
39.546875,0.065
39.5546875,0.025
39.5625,-0.085
39.5703125,-0.135
39.578125,-0.195
39.5859375,-0.185
39.59375,-0.205
39.6015625,-0.185
39.609375,-0.185
39.6171875,-0.165
39.625,-0.175
39.6328125,-0.185
39.640625,-0.155
39.6484375,-0.205
39.65625,-0.355
39.6640625,0.195
39.671875,1.435
39.6796875,2.285
39.6875,1.875
39.6953125,-0.105
39.703125,-0.665
39.7109375,-0.375
39.71875,-0.195
39.7265625,-0.175
39.734375,-0.165
39.7421875,-0.165
39.75,-0.165
39.7578125,-0.095
39.765625,-0.095
39.7734375,-0.115
39.78125,-0.095
39.7890625,-0.055
39.796875,-0.085
39.8046875,-0.065
39.8125,-0.065
39.8203125,-0.025
39.828125,0.005
39.8359375,0.005
39.84375,0.035
39.8515625,0.065
39.859375,0.085
39.8671875,0.165
39.875,0.195
39.8828125,0.245
39.890625,0.295
39.8984375,0.335
39.90625,0.335
39.9140625,0.345
39.921875,0.355
39.9296875,0.325
39.9375,0.255
39.9453125,0.185
39.953125,0.115
39.9609375,0.075
39.96875,0.035
39.9765625,0.005
39.984375,-0.025
39.9921875,-0.025
40,-0.035
40.0078125,-0.035
40.015625,-0.025
40.0234375,-0.025
40.03125,-0.025
40.0390625,-0.025
40.046875,-0.025
40.0546875,-0.025
40.0625,0.015
40.0703125,0.035
40.078125,0.005
40.0859375,0.015
40.09375,0.035
40.1015625,0.065
40.109375,0.045
40.1171875,0.065
40.125,0.065
40.1328125,0.045
40.140625,0.045
40.1484375,0.065
40.15625,0.055
40.1640625,0.005
40.171875,0.015
40.1796875,0.015
40.1875,0.035
40.1953125,0.065
40.203125,0.135
40.2109375,0.145
40.21875,0.155
40.2265625,0.125
40.234375,0.115
40.2421875,0.155
40.25,0.205
40.2578125,0.185
40.265625,0.205
40.2734375,0.105
40.28125,0.025
40.2890625,0.015
40.296875,-0.035
40.3046875,-0.055
40.3125,-0.035
40.3203125,-0.025
40.328125,-0.045
40.3359375,-0.055
40.34375,-0.035
40.3515625,-0.015
40.359375,0.005
40.3671875,-0.115
40.375,-0.125
40.3828125,0.685
40.390625,1.815
40.3984375,2.395
40.40625,1.105
40.4140625,-0.385
40.421875,-0.475
40.4296875,-0.165
40.4375,-0.005
40.4453125,-0.015
40.453125,-0.045
40.4609375,-0.025
40.46875,-0.015
40.4765625,-0.005
40.484375,0.005
40.4921875,0.025
40.5,0.045
40.5078125,0.025
40.515625,0.055
40.5234375,0.045
40.53125,0.105
40.5390625,0.115
40.546875,0.115
40.5546875,0.115
40.5625,0.135
40.5703125,0.185
40.578125,0.225
40.5859375,0.285
40.59375,0.305
40.6015625,0.375
40.609375,0.405
40.6171875,0.435
40.625,0.435
40.6328125,0.415
40.640625,0.395
40.6484375,0.345
40.65625,0.285
40.6640625,0.215
40.671875,0.175
40.6796875,0.105
40.6875,0.075
40.6953125,0.035
40.703125,0.035
40.7109375,-0.015
40.71875,-0.015
40.7265625,0.025
40.734375,0.045
40.7421875,0.045
40.75,0.035
40.7578125,0.045
40.765625,0.035
40.7734375,0.055
40.78125,0.045
40.7890625,0.045
40.796875,0.065
40.8046875,0.055
40.8125,0.075
40.8203125,0.035
40.828125,0.045
40.8359375,0.045
40.84375,0.045
40.8515625,0.025
40.859375,0.015
40.8671875,0.035
40.875,0.035
40.8828125,0.005
40.890625,0.015
40.8984375,0.005
40.90625,0.005
40.9140625,0.015
40.921875,-0.005
40.9296875,0.005
40.9375,-0.005
40.9453125,-0.005
40.953125,0.065
40.9609375,0.075
40.96875,0.105
40.9765625,0.105
40.984375,0.095
40.9921875,0.125
41,0.165
41.0078125,0.145
41.015625,0.155
41.0234375,0.045
41.03125,-0.035
41.0390625,-0.045
41.046875,-0.115
41.0546875,-0.125
41.0625,-0.155
41.0703125,-0.145
41.078125,-0.145
41.0859375,-0.135
41.09375,-0.135
41.1015625,-0.155
41.109375,-0.145
41.1171875,-0.205
41.125,-0.305
41.1328125,0.355
41.140625,1.425
41.1484375,2.085
41.15625,1.045
41.1640625,-0.385
41.171875,-0.655
41.1796875,-0.425
41.1875,-0.265
41.1953125,-0.245
41.203125,-0.265
41.2109375,-0.265
41.21875,-0.235
41.2265625,-0.225
41.234375,-0.245
41.2421875,-0.225
41.25,-0.205
41.2578125,-0.225
41.265625,-0.205
41.2734375,-0.175
41.28125,-0.155
41.2890625,-0.155
41.296875,-0.115
41.3046875,-0.105
41.3125,-0.095
41.3203125,-0.075
41.328125,0.005
41.3359375,0.025
41.34375,0.065
41.3515625,0.135
41.359375,0.185
41.3671875,0.205
41.375,0.165
41.3828125,0.205
41.390625,0.215
41.3984375,0.125
41.40625,0.085
41.4140625,0.015
41.421875,-0.055
41.4296875,-0.115
41.4375,-0.135
41.4453125,-0.195
41.453125,-0.175
41.4609375,-0.145
41.46875,-0.145
41.4765625,-0.165
41.484375,-0.175
41.4921875,-0.135
41.5,-0.145
41.5078125,-0.145
41.515625,-0.145
41.5234375,-0.125
41.53125,-0.095
41.5390625,-0.075
41.546875,-0.045
41.5546875,-0.065
41.5625,-0.055
41.5703125,-0.075
41.578125,-0.065
41.5859375,-0.065
41.59375,-0.075
41.6015625,-0.055
41.609375,-0.085
41.6171875,-0.055
41.625,-0.075
41.6328125,-0.095
41.640625,-0.075
41.6484375,-0.095
41.65625,-0.095
41.6640625,-0.085
41.671875,-0.105
41.6796875,-0.065
41.6875,0.005
41.6953125,0.065
41.703125,0.095
41.7109375,0.035
41.71875,0.055
41.7265625,0.095
41.734375,0.125
41.7421875,0.135
41.75,0.055
41.7578125,-0.045
41.765625,-0.075
41.7734375,-0.135
41.78125,-0.115
41.7890625,-0.135
41.796875,-0.165
41.8046875,-0.095
41.8125,-0.085
41.8203125,-0.105
41.828125,-0.095
41.8359375,-0.095
41.84375,-0.075
41.8515625,-0.265
41.859375,-0.055
41.8671875,0.885
41.875,1.835
41.8828125,2.235
41.890625,0.765
41.8984375,-0.495
41.90625,-0.515
41.9140625,-0.155
41.921875,-0.045
41.9296875,-0.055
41.9375,-0.055
41.9453125,-0.055
41.953125,-0.065
41.9609375,-0.065
41.96875,-0.055
41.9765625,-0.045
41.984375,-0.035
41.9921875,-0.005
42,-0.025
42.0078125,-0.045
42.015625,0.045
42.0234375,0.055
42.03125,0.065
42.0390625,0.065
42.046875,0.075
42.0546875,0.105
42.0625,0.165
42.0703125,0.225
42.078125,0.285
42.0859375,0.325
42.09375,0.345
42.1015625,0.345
42.109375,0.365
42.1171875,0.355
42.125,0.335
42.1328125,0.285
42.140625,0.185
42.1484375,0.125
42.15625,0.085
42.1640625,0.035
42.171875,0.025
42.1796875,0.025
42.1875,-0.035
42.1953125,-0.025
42.203125,-0.005
42.2109375,-0.055
42.21875,-0.015
42.2265625,-0.045
42.234375,-0.035
42.2421875,-0.055
42.25,-0.045
42.2578125,-0.025
42.265625,-0.015
42.2734375,0.015
42.28125,0.015
42.2890625,0.025
42.296875,0.005
42.3046875,0.025
42.3125,0.025
42.3203125,0.015
42.328125,-0.015
42.3359375,-0.005
42.34375,0.035
42.3515625,-0.005
42.359375,-0.015
42.3671875,-0.035
42.375,-0.015
42.3828125,0.005
42.390625,-0.035
42.3984375,-0.025
42.40625,-0.005
42.4140625,0.005
42.421875,-0.015
42.4296875,-0.025
42.4375,0.065
42.4453125,0.095
42.453125,0.115
42.4609375,0.075
42.46875,0.095
42.4765625,0.145
42.484375,0.175
42.4921875,0.105
42.5,0.095
42.5078125,-0.025
42.515625,-0.045
42.5234375,-0.065
42.53125,-0.125
42.5390625,-0.115
42.546875,-0.155
42.5546875,-0.145
42.5625,-0.125
42.5703125,-0.135
42.578125,-0.135
42.5859375,-0.085
42.59375,-0.115
42.6015625,-0.365
42.609375,0.035
42.6171875,1.175
42.625,2.125
42.6328125,1.975
42.640625,0.085
42.6484375,-0.625
42.65625,-0.445
42.6640625,-0.185
42.671875,-0.135
42.6796875,-0.135
42.6875,-0.115
42.6953125,-0.115
42.703125,-0.105
42.7109375,-0.115
42.71875,-0.095
42.7265625,-0.085
42.734375,-0.065
42.7421875,-0.075
42.75,-0.065
42.7578125,-0.055
42.765625,-0.035
42.7734375,-0.025
42.78125,-0.005
42.7890625,0.025
42.796875,0.055
42.8046875,0.085
42.8125,0.105
42.8203125,0.145
42.828125,0.195
42.8359375,0.235
42.84375,0.265
42.8515625,0.275
42.859375,0.285
42.8671875,0.275
42.875,0.245
42.8828125,0.185
42.890625,0.125
42.8984375,0.055
42.90625,-0.015
42.9140625,-0.045
42.921875,-0.065
42.9296875,-0.085
42.9375,-0.085
42.9453125,-0.095
42.953125,-0.115
42.9609375,-0.125
42.96875,-0.125
42.9765625,-0.115
42.984375,-0.105
42.9921875,-0.125
43,-0.115
43.0078125,-0.105
43.015625,-0.095
43.0234375,-0.095
43.03125,-0.085
43.0390625,-0.085
43.046875,-0.095
43.0546875,-0.105
43.0625,-0.095
43.0703125,-0.105
43.078125,-0.105
43.0859375,-0.115
43.09375,-0.125
43.1015625,-0.115
43.109375,-0.145
43.1171875,-0.125
43.125,-0.145
43.1328125,-0.185
43.140625,-0.145
43.1484375,-0.155
43.15625,-0.175
43.1640625,-0.185
43.171875,-0.185
43.1796875,-0.115
43.1875,-0.095
43.1953125,-0.095
43.203125,-0.085
43.2109375,-0.115
43.21875,-0.055
43.2265625,-0.005
43.234375,-0.025
43.2421875,-0.025
43.25,-0.155
43.2578125,-0.245
43.265625,-0.265
43.2734375,-0.305
43.28125,-0.335
43.2890625,-0.345
43.296875,-0.345
43.3046875,-0.345
43.3125,-0.345
43.3203125,-0.345
43.328125,-0.345
43.3359375,-0.325
43.34375,-0.485
43.3515625,-0.435
43.359375,0.405
43.3671875,1.485
43.375,2.115
43.3828125,0.845
43.390625,-0.645
43.3984375,-0.815
43.40625,-0.535
43.4140625,-0.405
43.421875,-0.395
43.4296875,-0.375
43.4375,-0.365
43.4453125,-0.385
43.453125,-0.375
43.4609375,-0.335
43.46875,-0.305
43.4765625,-0.315
43.484375,-0.285
43.4921875,-0.275
43.5,-0.255
43.5078125,-0.265
43.515625,-0.245
43.5234375,-0.215
43.53125,-0.195
43.5390625,-0.175
43.546875,-0.135
43.5546875,-0.105
43.5625,-0.045
43.5703125,0.005
43.578125,0.045
43.5859375,0.075
43.59375,0.085
43.6015625,0.125
43.609375,0.125
43.6171875,0.085
43.625,0.045
43.6328125,-0.005
43.640625,-0.055
43.6484375,-0.145
43.65625,-0.185
43.6640625,-0.195
43.671875,-0.205
43.6796875,-0.225
43.6875,-0.235
43.6953125,-0.245
43.703125,-0.235
43.7109375,-0.225
43.71875,-0.235
43.7265625,-0.225
43.734375,-0.195
43.7421875,-0.205
43.75,-0.185
43.7578125,-0.185
43.765625,-0.175
43.7734375,-0.145
43.78125,-0.165
43.7890625,-0.155
43.796875,-0.155
43.8046875,-0.165
43.8125,-0.175
43.8203125,-0.175
43.828125,-0.175
43.8359375,-0.175
43.84375,-0.185
43.8515625,-0.195
43.859375,-0.205
43.8671875,-0.205
43.875,-0.195
43.8828125,-0.195
43.890625,-0.135
43.8984375,-0.085
43.90625,-0.075
43.9140625,-0.065
43.921875,-0.105
43.9296875,-0.055
43.9375,0.005
43.9453125,-0.025
43.953125,-0.035
43.9609375,-0.135
43.96875,-0.185
43.9765625,-0.225
43.984375,-0.275
43.9921875,-0.265
44,-0.265
44.0078125,-0.265
44.015625,-0.285
44.0234375,-0.265
44.03125,-0.255
44.0390625,-0.255
44.046875,-0.225
44.0546875,-0.305
44.0625,-0.385
44.0703125,0.285
44.078125,1.345
44.0859375,2.045
44.09375,1.305
44.1015625,-0.265
44.109375,-0.635
44.1171875,-0.425
44.125,-0.235
44.1328125,-0.225
44.140625,-0.235
44.1484375,-0.245
44.15625,-0.215
44.1640625,-0.215
44.171875,-0.195
44.1796875,-0.205
44.1875,-0.175
44.1953125,-0.165
44.203125,-0.165
44.2109375,-0.145
44.21875,-0.115
44.2265625,-0.105
44.234375,-0.105
44.2421875,-0.085
44.25,-0.055
44.2578125,-0.025
44.265625,0.015
44.2734375,0.065
44.28125,0.105
44.2890625,0.155
44.296875,0.185
44.3046875,0.215
44.3125,0.245
44.3203125,0.205
44.328125,0.205
44.3359375,0.175
44.34375,0.125
44.3515625,0.035
44.359375,-0.025
44.3671875,-0.075
44.375,-0.105
44.3828125,-0.135
44.390625,-0.135
44.3984375,-0.135
44.40625,-0.155
44.4140625,-0.115
44.421875,-0.165
44.4296875,-0.155
44.4375,-0.135
44.4453125,-0.125
44.453125,-0.115
44.4609375,-0.105
44.46875,-0.075
44.4765625,-0.085
44.484375,-0.075
44.4921875,-0.085
44.5,-0.075
44.5078125,-0.085
44.515625,-0.065
44.5234375,-0.085
44.53125,-0.085
44.5390625,-0.075
44.546875,-0.085
44.5546875,-0.105
44.5625,-0.115
44.5703125,-0.105
44.578125,-0.095
44.5859375,-0.105
44.59375,-0.095
44.6015625,-0.125
44.609375,-0.035
44.6171875,-0.005
44.625,0.015
44.6328125,0.045
44.640625,-0.015
44.6484375,0.005
44.65625,0.075
44.6640625,0.075
44.671875,0.085
44.6796875,-0.005
44.6875,-0.095
44.6953125,-0.135
44.703125,-0.165
44.7109375,-0.195
44.71875,-0.205
44.7265625,-0.205
44.734375,-0.195
44.7421875,-0.175
44.75,-0.195
44.7578125,-0.205
44.765625,-0.175
44.7734375,-0.155
44.78125,-0.385
44.7890625,-0.035
44.796875,1.205
44.8046875,2.155
44.8125,2.065
44.8203125,0.095
44.828125,-0.705
44.8359375,-0.525
44.84375,-0.235
44.8515625,-0.185
44.859375,-0.175
44.8671875,-0.165
44.875,-0.175
44.8828125,-0.165
44.890625,-0.145
44.8984375,-0.135
44.90625,-0.115
44.9140625,-0.095
44.921875,-0.085
44.9296875,-0.085
44.9375,-0.065
44.9453125,-0.055
44.953125,-0.055
44.9609375,-0.025
44.96875,0.015
44.9765625,0.045
44.984375,0.075
44.9921875,0.125
45,0.195
45.0078125,0.215
45.015625,0.255
45.0234375,0.275
45.03125,0.295
45.0390625,0.295
45.046875,0.275
45.0546875,0.265
45.0625,0.215
45.0703125,0.125
45.078125,0.095
45.0859375,0.045
45.09375,-0.005
45.1015625,-0.045
45.109375,-0.065
45.1171875,-0.025
45.125,-0.055
45.1328125,-0.085
45.140625,-0.075
45.1484375,-0.045
45.15625,-0.015
45.1640625,-0.025
45.171875,-0.035
45.1796875,-0.005
45.1875,-0.015
45.1953125,-0.005
45.203125,0.005
45.2109375,0.005
45.21875,-0.025
45.2265625,0.015
45.234375,-0.025
45.2421875,-0.045
45.25,-0.005
45.2578125,0.005
45.265625,-0.025
45.2734375,-0.035
45.28125,-0.025
45.2890625,-0.045
45.296875,-0.045
45.3046875,-0.085
45.3125,-0.055
45.3203125,-0.065
45.328125,-0.015
45.3359375,0.045
45.34375,0.075
45.3515625,0.095
45.359375,0.035
45.3671875,0.065
45.375,0.135
45.3828125,0.125
45.390625,0.125
45.3984375,0.065
45.40625,-0.055
45.4140625,-0.075
45.421875,-0.125
45.4296875,-0.165
45.4375,-0.155
45.4453125,-0.155
45.453125,-0.185
45.4609375,-0.155
45.46875,-0.145
45.4765625,-0.145
45.484375,-0.125
45.4921875,-0.145
45.5,-0.365
45.5078125,0.115
45.515625,1.295
45.5234375,2.215
45.53125,2.055
45.5390625,0.135
45.546875,-0.695
45.5546875,-0.495
45.5625,-0.215
45.5703125,-0.145
45.578125,-0.145
45.5859375,-0.145
45.59375,-0.155
45.6015625,-0.145
45.609375,-0.125
45.6171875,-0.115
45.625,-0.095
45.6328125,-0.105
45.640625,-0.065
45.6484375,-0.075
45.65625,-0.055
45.6640625,-0.015
45.671875,-0.015
45.6796875,0.015
45.6875,0.025
45.6953125,0.065
45.703125,0.095
45.7109375,0.125
45.71875,0.185
45.7265625,0.235
45.734375,0.255
45.7421875,0.275
45.75,0.295
45.7578125,0.325
45.765625,0.315
45.7734375,0.275
45.78125,0.205
45.7890625,0.175
45.796875,0.105
45.8046875,0.035
45.8125,-0.015
45.8203125,-0.045
45.828125,-0.045
45.8359375,-0.035
45.84375,-0.045
45.8515625,-0.065
45.859375,-0.055
45.8671875,-0.045
45.875,-0.035
45.8828125,-0.055
45.890625,-0.035
45.8984375,-0.005
45.90625,-0.015
45.9140625,-0.025
45.921875,-0.015
45.9296875,-0.005
45.9375,0.015
45.9453125,-0.015
45.953125,-0.005
45.9609375,-0.015
45.96875,-0.015
45.9765625,-0.015
45.984375,-0.045
45.9921875,-0.025
46,-0.025
46.0078125,-0.065
46.015625,-0.065
46.0234375,-0.035
46.03125,-0.055
46.0390625,-0.055
46.046875,-0.045
46.0546875,0.015
46.0625,0.045
46.0703125,0.065
46.078125,0.045
46.0859375,0.035
46.09375,0.085
46.1015625,0.135
46.109375,0.095
46.1171875,0.115
46.125,-0.015
46.1328125,-0.085
46.140625,-0.135
46.1484375,-0.175
46.15625,-0.155
46.1640625,-0.135
46.171875,-0.165
46.1796875,-0.195
46.1875,-0.185
46.1953125,-0.145
46.203125,-0.145
46.2109375,-0.125
46.21875,-0.265
46.2265625,-0.335
46.234375,0.395
46.2421875,1.495
46.25,2.245
46.2578125,1.455
46.265625,-0.345
46.2734375,-0.665
46.28125,-0.345
46.2890625,-0.175
46.296875,-0.155
46.3046875,-0.175
46.3125,-0.165
46.3203125,-0.145
46.328125,-0.125
46.3359375,-0.145
46.34375,-0.105
46.3515625,-0.115
46.359375,-0.105
46.3671875,-0.065
46.375,-0.075
46.3828125,-0.055
46.390625,-0.045
46.3984375,-0.025
46.40625,-0.005
46.4140625,0.035
46.421875,0.025
46.4296875,0.055
46.4375,0.125
46.4453125,0.145
46.453125,0.195
46.4609375,0.235
46.46875,0.245
46.4765625,0.255
46.484375,0.265
46.4921875,0.255
46.5,0.205
46.5078125,0.165
46.515625,0.115
46.5234375,0.015
46.53125,-0.005
46.5390625,-0.045
46.546875,-0.085
46.5546875,-0.095
46.5625,-0.085
46.5703125,-0.115
46.578125,-0.125
46.5859375,-0.095
46.59375,-0.095
46.6015625,-0.085
46.609375,-0.085
46.6171875,-0.065
46.625,-0.065
46.6328125,-0.065
46.640625,-0.055
46.6484375,-0.055
46.65625,-0.035
46.6640625,-0.055
46.671875,-0.045
46.6796875,-0.055
46.6875,-0.065
46.6953125,-0.055
46.703125,-0.055
46.7109375,-0.065
46.71875,-0.085
46.7265625,-0.065
46.734375,-0.095
46.7421875,-0.075
46.75,-0.075
46.7578125,-0.095
46.765625,-0.075
46.7734375,0.005
46.78125,0.005
46.7890625,0.045
46.796875,0.025
46.8046875,0.015
46.8125,0.105
46.8203125,0.095
46.828125,0.085
46.8359375,0.095
46.84375,-0.045
46.8515625,-0.125
46.859375,-0.155
46.8671875,-0.215
46.875,-0.205
46.8828125,-0.185
46.890625,-0.205
46.8984375,-0.205
46.90625,-0.205
46.9140625,-0.195
46.921875,-0.175
46.9296875,-0.135
46.9375,-0.315
46.9453125,-0.215
46.953125,0.725
46.9609375,1.815
46.96875,2.265
46.9765625,0.605
46.984375,-0.635
46.9921875,-0.605
47,-0.285
47.0078125,-0.195
47.015625,-0.185
47.0234375,-0.175
47.03125,-0.215
47.0390625,-0.165
47.046875,-0.165
47.0546875,-0.145
47.0625,-0.135
47.0703125,-0.115
47.078125,-0.135
47.0859375,-0.115
47.09375,-0.095
47.1015625,-0.065
47.109375,-0.065
47.1171875,-0.065
47.125,-0.005
47.1328125,0.005
47.140625,0.035
47.1484375,0.055
47.15625,0.105
47.1640625,0.175
47.171875,0.205
47.1796875,0.235
47.1875,0.245
47.1953125,0.245
47.203125,0.265
47.2109375,0.265
47.21875,0.205
47.2265625,0.155
47.234375,0.075
47.2421875,0.015
47.25,-0.045
47.2578125,-0.045
47.265625,-0.095
47.2734375,-0.095
47.28125,-0.085
47.2890625,-0.115
47.296875,-0.085
47.3046875,-0.095
47.3125,-0.075
47.3203125,-0.085
47.328125,-0.075
47.3359375,-0.045
47.34375,-0.045
47.3515625,-0.035
47.359375,-0.055
47.3671875,-0.065
47.375,-0.035
47.3828125,-0.015
47.390625,-0.035
47.3984375,-0.045
47.40625,-0.075
47.4140625,-0.065
47.421875,-0.055
47.4296875,-0.055
47.4375,-0.055
47.4453125,-0.075
47.453125,-0.115
47.4609375,-0.105
47.46875,-0.085
47.4765625,-0.075
47.484375,-0.005
47.4921875,0.025
47.5,0.055
47.5078125,0.055
47.515625,0.015
47.5234375,0.055
47.53125,0.105
47.5390625,0.075
47.546875,0.085
47.5546875,-0.025
47.5625,-0.115
47.5703125,-0.135
47.578125,-0.175
47.5859375,-0.195
47.59375,-0.185
47.6015625,-0.175
47.609375,-0.195
47.6171875,-0.195
47.625,-0.185
47.6328125,-0.175
47.640625,-0.145
47.6484375,-0.245
47.65625,-0.325
47.6640625,0.425
47.671875,1.545
47.6796875,2.205
47.6875,1.135
47.6953125,-0.435
47.703125,-0.645
47.7109375,-0.345
47.71875,-0.205
47.7265625,-0.205
47.734375,-0.195
47.7421875,-0.195
47.75,-0.175
47.7578125,-0.155
47.765625,-0.145
47.7734375,-0.155
47.78125,-0.155
47.7890625,-0.135
47.796875,-0.115
47.8046875,-0.115
47.8125,-0.105
47.8203125,-0.105
47.828125,-0.075
47.8359375,-0.045
47.84375,-0.045
47.8515625,-0.015
47.859375,0.005
47.8671875,0.075
47.875,0.125
47.8828125,0.165
47.890625,0.165
47.8984375,0.185
47.90625,0.215
47.9140625,0.205
47.921875,0.195
47.9296875,0.145
47.9375,0.095
47.9453125,0.035
47.953125,-0.055
47.9609375,-0.085
47.96875,-0.115
47.9765625,-0.145
47.984375,-0.165
47.9921875,-0.165
48,-0.185
48.0078125,-0.175
48.015625,-0.175
48.0234375,-0.155
48.03125,-0.135
48.0390625,-0.145
48.046875,-0.145
48.0546875,-0.145
48.0625,-0.125
48.0703125,-0.145
48.078125,-0.125
48.0859375,-0.115
48.09375,-0.125
48.1015625,-0.135
48.109375,-0.145
48.1171875,-0.125
48.125,-0.155
48.1328125,-0.165
48.140625,-0.165
48.1484375,-0.175
48.15625,-0.175
48.1640625,-0.175
48.171875,-0.195
48.1796875,-0.155
48.1875,-0.105
48.1953125,-0.065
48.203125,-0.095
48.2109375,-0.145
48.21875,-0.115
48.2265625,-0.025
48.234375,-0.025
48.2421875,-0.015
48.25,-0.055
48.2578125,-0.195
48.265625,-0.265
48.2734375,-0.285
48.28125,-0.315
48.2890625,-0.335
48.296875,-0.355
48.3046875,-0.355
48.3125,-0.335
48.3203125,-0.335
48.328125,-0.325
48.3359375,-0.325
48.34375,-0.285
48.3515625,-0.495
48.359375,-0.365
48.3671875,0.725
48.375,1.825
48.3828125,2.155
48.390625,0.435
48.3984375,-0.775
48.40625,-0.785
48.4140625,-0.475
48.421875,-0.375
48.4296875,-0.385
48.4375,-0.375
48.4453125,-0.365
48.453125,-0.365
48.4609375,-0.365
48.46875,-0.325
48.4765625,-0.315
48.484375,-0.335
48.4921875,-0.325
48.5,-0.285
48.5078125,-0.295
48.515625,-0.285
48.5234375,-0.275
48.53125,-0.245
48.5390625,-0.225
48.546875,-0.195
48.5546875,-0.185
48.5625,-0.145
48.5703125,-0.085
48.578125,-0.065
48.5859375,-0.005
48.59375,0.035
48.6015625,0.025
48.609375,0.045
48.6171875,0.025
48.625,0.005
48.6328125,-0.005
48.640625,-0.075
48.6484375,-0.155
48.65625,-0.225
48.6640625,-0.275
48.671875,-0.305
48.6796875,-0.325
48.6875,-0.345
48.6953125,-0.365
48.703125,-0.385
48.7109375,-0.375
48.71875,-0.385
48.7265625,-0.365
48.734375,-0.375
48.7421875,-0.365
48.75,-0.335
48.7578125,-0.345
48.765625,-0.325
48.7734375,-0.325
48.78125,-0.335
48.7890625,-0.325
48.796875,-0.335
48.8046875,-0.315
48.8125,-0.335
48.8203125,-0.335
48.828125,-0.345
48.8359375,-0.345
48.84375,-0.355
48.8515625,-0.375
48.859375,-0.345
48.8671875,-0.295
48.875,-0.275
48.8828125,-0.275
48.890625,-0.275
48.8984375,-0.295
48.90625,-0.245
48.9140625,-0.235
48.921875,-0.215
48.9296875,-0.285
48.9375,-0.375
48.9453125,-0.435
48.953125,-0.455
48.9609375,-0.515
48.96875,-0.495
48.9765625,-0.505
48.984375,-0.535
48.9921875,-0.515
49,-0.525
49.0078125,-0.485
49.015625,-0.495
49.0234375,-0.425
49.03125,-0.645
49.0390625,-0.625
49.046875,0.455
49.0546875,1.655
49.0625,2.295
49.0703125,0.565
49.078125,-0.865
49.0859375,-0.985
49.09375,-0.765
49.1015625,-0.545
49.109375,-0.535
49.1171875,-0.505
49.125,-0.495
49.1328125,-0.465
49.140625,-0.455
49.1484375,-0.455
49.15625,-0.455
49.1640625,-0.445
49.171875,-0.405
49.1796875,-0.395
49.1875,-0.365
49.1953125,-0.355
49.203125,-0.375
49.2109375,-0.335
49.21875,-0.305
49.2265625,-0.265
49.234375,-0.235
49.2421875,-0.165
49.25,-0.135
49.2578125,-0.085
49.265625,-0.065
49.2734375,-0.035
49.28125,-0.005
49.2890625,0.015
49.296875,0.005
49.3046875,-0.005
49.3125,-0.045
49.3203125,-0.105
49.328125,-0.195
49.3359375,-0.255
49.34375,-0.285
49.3515625,-0.335
49.359375,-0.345
49.3671875,-0.345
49.375,-0.325
49.3828125,-0.355
49.390625,-0.375
49.3984375,-0.345
49.40625,-0.295
49.4140625,-0.255
49.421875,-0.225
49.4296875,-0.225
49.4375,-0.205
49.4453125,-0.205
49.453125,-0.185
49.4609375,-0.155
49.46875,-0.145
49.4765625,-0.125
49.484375,-0.185
49.4921875,-0.145
49.5,-0.135
49.5078125,-0.135
49.515625,-0.125
49.5234375,-0.135
49.53125,-0.125
49.5390625,-0.105
49.546875,-0.095
49.5546875,-0.095
49.5625,-0.055
49.5703125,-0.105
49.578125,-0.075
49.5859375,-0.025
49.59375,-0.035
49.6015625,-0.065
49.609375,-0.155
49.6171875,-0.205
49.625,-0.235
49.6328125,-0.275
49.640625,-0.275
49.6484375,-0.275
49.65625,-0.275
49.6640625,-0.295
49.671875,-0.285
49.6796875,-0.275
49.6875,-0.275
49.6953125,-0.245
49.703125,-0.425
49.7109375,-0.385
49.71875,0.535
49.7265625,1.635
49.734375,2.245
49.7421875,1.305
49.75,-0.475
49.7578125,-0.765
49.765625,-0.545
49.7734375,-0.375
49.78125,-0.325
49.7890625,-0.295
49.796875,-0.285
49.8046875,-0.285
49.8125,-0.265
49.8203125,-0.245
49.828125,-0.245
49.8359375,-0.255
49.84375,-0.275
49.8515625,-0.255
49.859375,-0.205
49.8671875,-0.145
49.875,-0.105
49.8828125,-0.095
49.890625,-0.085
49.8984375,-0.095
49.90625,-0.085
49.9140625,-0.035
49.921875,-0.025
49.9296875,0.035
49.9375,0.085
49.9453125,0.105
49.953125,0.145
49.9609375,0.155
49.96875,0.145
49.9765625,0.145
49.984375,0.095
49.9921875,0.065
50,-0.005
50.0078125,-0.085
50.015625,-0.125
50.0234375,-0.165
50.03125,-0.135
50.0390625,-0.175
50.046875,-0.175
50.0546875,-0.175
50.0625,-0.175
50.0703125,-0.155
50.078125,-0.155
50.0859375,-0.145
50.09375,-0.125
50.1015625,-0.115
50.109375,-0.085
50.1171875,-0.085
50.125,-0.085
50.1328125,-0.065
50.140625,-0.055
50.1484375,-0.045
50.15625,-0.055
50.1640625,-0.035
50.171875,-0.035
50.1796875,-0.045
50.1875,-0.055
50.1953125,-0.055
50.203125,-0.065
50.2109375,-0.095
50.21875,-0.055
50.2265625,-0.075
50.234375,-0.055
50.2421875,-0.095
50.25,-0.065
50.2578125,0.015
50.265625,0.045
50.2734375,0.065
50.28125,0.085
50.2890625,0.055
50.296875,0.085
50.3046875,0.135
50.3125,0.115
50.3203125,0.105
50.328125,-0.025
50.3359375,-0.055
50.34375,-0.065
50.3515625,-0.135
50.359375,-0.135
50.3671875,-0.125
50.375,-0.125
50.3828125,-0.115
50.390625,-0.105
50.3984375,-0.105
50.40625,-0.065
50.4140625,-0.065
50.421875,-0.245
50.4296875,-0.125
50.4375,0.885
50.4453125,1.945
50.453125,2.445
50.4609375,1.185
50.46875,-0.375
50.4765625,-0.565
50.484375,-0.285
50.4921875,-0.145
50.5,-0.105
50.5078125,-0.125
50.515625,-0.095
50.5234375,-0.085
50.53125,-0.095
50.5390625,-0.065
50.546875,-0.075
50.5546875,-0.075
50.5625,-0.045
50.5703125,-0.035
50.578125,-0.035
50.5859375,-0.035
50.59375,-0.025
50.6015625,-0.005
50.609375,-0.025
50.6171875,0.025
50.625,0.055
50.6328125,0.095
50.640625,0.145
50.6484375,0.185
50.65625,0.235
50.6640625,0.265
50.671875,0.285
50.6796875,0.295
50.6875,0.305
50.6953125,0.285
50.703125,0.265
50.7109375,0.205
50.71875,0.125
50.7265625,0.055
50.734375,0.005
50.7421875,-0.015
50.75,-0.045
50.7578125,-0.065
50.765625,-0.075
50.7734375,-0.085
50.78125,-0.045
50.7890625,-0.075
50.796875,-0.075
50.8046875,-0.065
50.8125,-0.065
50.8203125,-0.065
50.828125,-0.055
50.8359375,-0.035
50.84375,-0.025
50.8515625,-0.005
50.859375,-0.005
50.8671875,0.005
50.875,-0.005
50.8828125,0.025
50.890625,0.005
50.8984375,0.025
50.90625,0.025
50.9140625,0.005
50.921875,0.015
50.9296875,0.005
50.9375,-0.015
50.9453125,-0.015
50.953125,-0.015
50.9609375,0.005
50.96875,-0.025
50.9765625,-0.015
50.984375,-0.015
50.9921875,-0.045
51,-0.045
51.0078125,-0.045
51.015625,-0.045
51.0234375,-0.045
51.03125,-0.055
51.0390625,-0.055
51.046875,0.025
51.0546875,0.055
51.0625,0.095
51.0703125,0.065
51.078125,0.045
51.0859375,0.085
51.09375,0.125
51.1015625,0.115
51.109375,0.115
51.1171875,0.025
51.125,-0.035
51.1328125,-0.075
51.140625,-0.125
51.1484375,-0.115
51.15625,-0.125
51.1640625,-0.125
51.171875,-0.125
51.1796875,-0.135
51.1875,-0.135
51.1953125,-0.125
51.203125,-0.095
51.2109375,-0.205
51.21875,-0.235
51.2265625,0.645
51.234375,1.805
51.2421875,2.415
51.25,1.535
51.2578125,-0.385
51.265625,-0.685
51.2734375,-0.355
51.28125,-0.165
51.2890625,-0.135
51.296875,-0.145
51.3046875,-0.155
51.3125,-0.135
51.3203125,-0.105
51.328125,-0.095
51.3359375,-0.105
51.34375,-0.105
51.3515625,-0.115
51.359375,-0.075
51.3671875,-0.055
51.375,-0.045
51.3828125,-0.055
51.390625,-0.015
51.3984375,-0.005
51.40625,-0.005
51.4140625,0.055
51.421875,0.075
51.4296875,0.105
51.4375,0.145
51.4453125,0.195
51.453125,0.245
51.4609375,0.285
51.46875,0.305
51.4765625,0.315
51.484375,0.315
51.4921875,0.275
51.5,0.205
51.5078125,0.115
51.515625,0.045
51.5234375,-0.005
51.53125,-0.045
51.5390625,-0.085
51.546875,-0.095
51.5546875,-0.105
51.5625,-0.105
51.5703125,-0.135
51.578125,-0.105
51.5859375,-0.125
51.59375,-0.125
51.6015625,-0.115
51.609375,-0.105
51.6171875,-0.125
51.625,-0.105
51.6328125,-0.095
51.640625,-0.085
51.6484375,-0.065
51.65625,-0.075
51.6640625,-0.055
51.671875,-0.035
51.6796875,-0.035
51.6875,-0.025
51.6953125,-0.065
51.703125,-0.055
51.7109375,-0.025
51.71875,-0.065
51.7265625,-0.055
51.734375,-0.055
51.7421875,-0.055
51.75,-0.085
51.7578125,-0.095
51.765625,-0.075
51.7734375,-0.095
51.78125,-0.105
51.7890625,-0.085
51.796875,-0.085
51.8046875,-0.085
51.8125,-0.095
51.8203125,-0.105
51.828125,-0.105
51.8359375,-0.085
51.84375,-0.095
51.8515625,-0.095
51.859375,-0.075
51.8671875,-0.015
51.875,0.035
51.8828125,0.055
51.890625,0.055
51.8984375,0.015
51.90625,0.075
51.9140625,0.105
51.921875,0.105
51.9296875,0.095
51.9375,0.015
51.9453125,-0.045
51.953125,-0.095
51.9609375,-0.125
51.96875,-0.135
51.9765625,-0.125
51.984375,-0.145
51.9921875,-0.155
52,-0.145
52.0078125,-0.145
52.015625,-0.125
52.0234375,-0.085
52.03125,-0.215
52.0390625,-0.245
52.046875,0.585
52.0546875,1.745
52.0625,2.345
52.0703125,1.835
52.078125,-0.175
52.0859375,-0.695
52.09375,-0.365
52.1015625,-0.185
52.109375,-0.155
52.1171875,-0.155
52.125,-0.145
52.1328125,-0.145
52.140625,-0.135
52.1484375,-0.125
52.15625,-0.105
52.1640625,-0.095
52.171875,-0.095
52.1796875,-0.085
52.1875,-0.075
52.1953125,-0.075
52.203125,-0.055
52.2109375,-0.045
52.21875,-0.005
52.2265625,0.015
52.234375,0.035
52.2421875,0.075
52.25,0.105
52.2578125,0.145
52.265625,0.215
52.2734375,0.265
52.28125,0.295
52.2890625,0.325
52.296875,0.345
52.3046875,0.335
52.3125,0.335
52.3203125,0.275
52.328125,0.185
52.3359375,0.105
52.34375,0.055
52.3515625,-0.015
52.359375,-0.025
52.3671875,-0.065
52.375,-0.055
52.3828125,-0.065
52.390625,-0.055
52.3984375,-0.065
52.40625,-0.055
52.4140625,-0.045
52.421875,-0.055
52.4296875,-0.055
52.4375,-0.055
52.4453125,-0.055
52.453125,-0.045
52.4609375,-0.035
52.46875,-0.015
52.4765625,-0.025
52.484375,0.005
52.4921875,0.005
52.5,0.015
52.5078125,0.005
52.515625,0.005
52.5234375,-0.015
52.53125,-0.005
52.5390625,0.015
52.546875,-0.015
52.5546875,-0.025
52.5625,-0.015
52.5703125,-0.005
52.578125,-0.015
52.5859375,-0.035
52.59375,-0.025
52.6015625,-0.035
52.609375,-0.055
52.6171875,-0.045
52.625,-0.035
52.6328125,-0.025
52.640625,-0.035
52.6484375,-0.045
52.65625,-0.045
52.6640625,-0.025
52.671875,-0.035
52.6796875,-0.035
52.6875,-0.055
52.6953125,0.025
52.703125,0.085
52.7109375,0.125
52.71875,0.125
52.7265625,0.065
52.734375,0.115
52.7421875,0.155
52.75,0.155
52.7578125,0.155
52.765625,0.095
52.7734375,0.025
52.78125,-0.035
52.7890625,-0.055
52.796875,-0.095
52.8046875,-0.105
52.8125,-0.105
52.8203125,-0.115
52.828125,-0.085
52.8359375,-0.075
52.84375,-0.075
52.8515625,-0.065
52.859375,-0.115
52.8671875,-0.265
52.875,0.315
52.8828125,1.425
52.890625,2.235
52.8984375,1.895
52.90625,-0.065
52.9140625,-0.585
52.921875,-0.305
52.9296875,-0.115
52.9375,-0.105
52.9453125,-0.105
52.953125,-0.085
52.9609375,-0.095
52.96875,-0.085
52.9765625,-0.085
52.984375,-0.075
52.9921875,-0.065
53,-0.045
53.0078125,-0.045
53.015625,-0.025
53.0234375,-0.025
53.03125,0.025
53.0390625,0.015
53.046875,0.035
53.0546875,0.045
53.0625,0.075
53.0703125,0.115
53.078125,0.175
53.0859375,0.215
53.09375,0.275
53.1015625,0.295
53.109375,0.345
53.1171875,0.385
53.125,0.365
53.1328125,0.375
53.140625,0.365
53.1484375,0.285
53.15625,0.235
53.1640625,0.135
53.171875,0.065
53.1796875,0.015
53.1875,-0.005
53.1953125,-0.045
53.203125,-0.035
53.2109375,-0.025
53.21875,-0.035
53.2265625,-0.035
53.234375,-0.045
53.2421875,-0.045
53.25,-0.035
53.2578125,-0.005
53.265625,-0.035
53.2734375,-0.035
53.28125,-0.045
53.2890625,-0.015
53.296875,0.005
53.3046875,-0.025
53.3125,0.005
53.3203125,-0.005
53.328125,0.015
53.3359375,-0.005
53.34375,0.015
53.3515625,-0.005
53.359375,-0.015
53.3671875,-0.035
53.375,-0.035
53.3828125,-0.025
53.390625,-0.045
53.3984375,-0.045
53.40625,-0.055
53.4140625,-0.045
53.421875,-0.065
53.4296875,-0.055
53.4375,-0.035
53.4453125,-0.065
53.453125,-0.065
53.4609375,-0.065
53.46875,-0.055
53.4765625,-0.065
53.484375,-0.075
53.4921875,-0.075
53.5,-0.085
53.5078125,-0.055
53.515625,-0.045
53.5234375,0.015
53.53125,0.065
53.5390625,0.095
53.546875,0.105
53.5546875,0.035
53.5625,0.115
53.5703125,0.125
53.578125,0.135
53.5859375,0.125
53.59375,0.065
53.6015625,-0.025
53.609375,-0.065
53.6171875,-0.085
53.625,-0.135
53.6328125,-0.155
53.640625,-0.135
53.6484375,-0.135
53.65625,-0.125
53.6640625,-0.115
53.671875,-0.115
53.6796875,-0.095
53.6875,-0.165
53.6953125,-0.285
53.703125,0.425
53.7109375,1.535
53.71875,2.215
53.7265625,1.615
53.734375,-0.155
53.7421875,-0.595
53.75,-0.325
53.7578125,-0.175
53.765625,-0.155
53.7734375,-0.145
53.78125,-0.165
53.7890625,-0.125
53.796875,-0.105
53.8046875,-0.105
53.8125,-0.085
53.8203125,-0.095
53.828125,-0.075
53.8359375,-0.075
53.84375,-0.055
53.8515625,-0.055
53.859375,-0.035
53.8671875,-0.025
53.875,-0.025
53.8828125,0.015
53.890625,0.055
53.8984375,0.075
53.90625,0.115
53.9140625,0.165
53.921875,0.205
53.9296875,0.265
53.9375,0.285
53.9453125,0.305
53.953125,0.315
53.9609375,0.325
53.96875,0.295
53.9765625,0.245
53.984375,0.165
53.9921875,0.105
54,0.045
54.0078125,-0.005
54.015625,-0.045
54.0234375,-0.085
54.03125,-0.075
54.0390625,-0.085
54.046875,-0.095
54.0546875,-0.105
54.0625,-0.095
54.0703125,-0.095
54.078125,-0.095
54.0859375,-0.105
54.09375,-0.075
54.1015625,-0.085
54.109375,-0.085
54.1171875,-0.065
54.125,-0.065
54.1328125,-0.055
54.140625,-0.055
54.1484375,-0.035
54.15625,-0.045
54.1640625,-0.055
54.171875,-0.075
54.1796875,-0.055
54.1875,-0.065
54.1953125,-0.095
54.203125,-0.095
54.2109375,-0.105
54.21875,-0.105
54.2265625,-0.095
54.234375,-0.085
54.2421875,-0.135
54.25,-0.125
54.2578125,-0.115
54.265625,-0.115
54.2734375,-0.115
54.28125,-0.115
54.2890625,-0.125
54.296875,-0.115
54.3046875,-0.125
54.3125,-0.115
54.3203125,-0.075
54.328125,-0.015
54.3359375,0.005
54.34375,0.045
54.3515625,-0.015
54.359375,0.005
54.3671875,0.065
54.375,0.075
54.3828125,0.065
54.390625,0.005
54.3984375,-0.075
54.40625,-0.115
54.4140625,-0.165
54.421875,-0.195
54.4296875,-0.195
54.4375,-0.195
54.4453125,-0.195
54.453125,-0.175
54.4609375,-0.165
54.46875,-0.185
54.4765625,-0.165
54.484375,-0.225
54.4921875,-0.335
54.5,0.185
54.5078125,1.195
54.515625,1.965
54.5234375,1.715
54.53125,0.015
54.5390625,-0.645
54.546875,-0.425
54.5546875,-0.235
54.5625,-0.195
54.5703125,-0.205
54.578125,-0.205
54.5859375,-0.195
54.59375,-0.175
54.6015625,-0.195
54.609375,-0.165
54.6171875,-0.165
54.625,-0.155
54.6328125,-0.135
54.640625,-0.125
54.6484375,-0.115
54.65625,-0.105
54.6640625,-0.075
54.671875,-0.075
54.6796875,-0.045
54.6875,-0.025
54.6953125,0.005
54.703125,0.035
54.7109375,0.075
54.71875,0.125
54.7265625,0.185
54.734375,0.195
54.7421875,0.235
54.75,0.255
54.7578125,0.255
54.765625,0.235
54.7734375,0.185
54.78125,0.145
54.7890625,0.065
54.796875,-0.015
54.8046875,-0.055
54.8125,-0.105
54.8203125,-0.125
54.828125,-0.135
54.8359375,-0.145
54.84375,-0.145
54.8515625,-0.155
54.859375,-0.165
54.8671875,-0.135
54.875,-0.145
54.8828125,-0.135
54.890625,-0.135
54.8984375,-0.115
54.90625,-0.105
54.9140625,-0.125
54.921875,-0.105
54.9296875,-0.105
54.9375,-0.105
54.9453125,-0.105
54.953125,-0.105
54.9609375,-0.095
54.96875,-0.115
54.9765625,-0.125
54.984375,-0.135
54.9921875,-0.135
55,-0.115
55.0078125,-0.135
55.015625,-0.155
55.0234375,-0.145
55.03125,-0.135
55.0390625,-0.165
55.046875,-0.155
55.0546875,-0.155
55.0625,-0.155
55.0703125,-0.145
55.078125,-0.165
55.0859375,-0.075
55.09375,-0.035
55.1015625,-0.035
55.109375,-0.015
55.1171875,-0.085
55.125,-0.015
55.1328125,0.035
55.140625,0.045
55.1484375,0.045
55.15625,-0.045
55.1640625,-0.155
55.171875,-0.185
55.1796875,-0.225
55.1875,-0.235
55.1953125,-0.235
55.203125,-0.255
55.2109375,-0.235
55.21875,-0.245
55.2265625,-0.235
55.234375,-0.235
55.2421875,-0.185
55.25,-0.315
55.2578125,-0.385
55.265625,0.485
55.2734375,1.615
55.28125,2.245
55.2890625,1.065
55.296875,-0.515
55.3046875,-0.695
55.3125,-0.375
55.3203125,-0.245
55.328125,-0.225
55.3359375,-0.225
55.34375,-0.225
55.3515625,-0.215
55.359375,-0.185
55.3671875,-0.215
55.375,-0.195
55.3828125,-0.175
55.390625,-0.165
55.3984375,-0.155
55.40625,-0.155
55.4140625,-0.115
55.421875,-0.115
55.4296875,-0.095
55.4375,-0.075
55.4453125,-0.045
55.453125,-0.025
55.4609375,0.005
55.46875,0.035
55.4765625,0.095
55.484375,0.135
55.4921875,0.175
55.5,0.215
55.5078125,0.225
55.515625,0.215
55.5234375,0.225
55.53125,0.205
55.5390625,0.135
55.546875,0.075
55.5546875,0.005
55.5625,-0.025
55.5703125,-0.095
55.578125,-0.125
55.5859375,-0.135
55.59375,-0.165
55.6015625,-0.165
55.609375,-0.155
55.6171875,-0.185
55.625,-0.155
55.6328125,-0.165
55.640625,-0.145
55.6484375,-0.135
55.65625,-0.135
55.6640625,-0.145
55.671875,-0.125
55.6796875,-0.105
55.6875,-0.115
55.6953125,-0.115
55.703125,-0.125
55.7109375,-0.125
55.71875,-0.115
55.7265625,-0.135
55.734375,-0.135
55.7421875,-0.135
55.75,-0.145
55.7578125,-0.145
55.765625,-0.135
55.7734375,-0.145
55.78125,-0.205
55.7890625,-0.165
55.796875,-0.155
55.8046875,-0.185
55.8125,-0.155
55.8203125,-0.165
55.828125,-0.175
55.8359375,-0.105
55.84375,-0.045
55.8515625,-0.055
55.859375,-0.015
55.8671875,-0.085
55.875,-0.035
55.8828125,0.025
55.890625,0.025
55.8984375,0.015
55.90625,-0.065
55.9140625,-0.165
55.921875,-0.205
55.9296875,-0.235
55.9375,-0.265
55.9453125,-0.275
55.953125,-0.275
55.9609375,-0.275
55.96875,-0.255
55.9765625,-0.245
55.984375,-0.255
55.9921875,-0.225
56,-0.345
56.0078125,-0.375
56.015625,0.415
56.0234375,1.515
56.03125,2.185
56.0390625,1.025
56.046875,-0.505
56.0546875,-0.695
56.0625,-0.385
56.0703125,-0.245
56.078125,-0.285
56.0859375,-0.245
56.09375,-0.255
56.1015625,-0.255
56.109375,-0.235
56.1171875,-0.245
56.125,-0.215
56.1328125,-0.215
56.140625,-0.205
56.1484375,-0.195
56.15625,-0.165
56.1640625,-0.165
56.171875,-0.155
56.1796875,-0.135
56.1875,-0.105
56.1953125,-0.115
56.203125,-0.085
56.2109375,-0.025
56.21875,0.025
56.2265625,0.075
56.234375,0.095
56.2421875,0.135
56.25,0.195
56.2578125,0.165
56.265625,0.185
56.2734375,0.185
56.28125,0.175
56.2890625,0.085
56.296875,0.045
56.3046875,-0.035
56.3125,-0.095
56.3203125,-0.125
56.328125,-0.155
56.3359375,-0.175
56.34375,-0.185
56.3515625,-0.175
56.359375,-0.195
56.3671875,-0.185
56.375,-0.175
56.3828125,-0.185
56.390625,-0.155
56.3984375,-0.155
56.40625,-0.135
56.4140625,-0.135
56.421875,-0.135
56.4296875,-0.145
56.4375,-0.125
56.4453125,-0.125
56.453125,-0.145
56.4609375,-0.135
56.46875,-0.145
56.4765625,-0.135
56.484375,-0.165
56.4921875,-0.155
56.5,-0.155
56.5078125,-0.165
56.515625,-0.175
56.5234375,-0.185
56.53125,-0.175
56.5390625,-0.165
56.546875,-0.185
56.5546875,-0.195
56.5625,-0.165
56.5703125,-0.075
56.578125,-0.045
56.5859375,-0.045
56.59375,-0.055
56.6015625,-0.065
56.609375,-0.015
56.6171875,0.015
56.625,0.025
56.6328125,-0.015
56.640625,-0.135
56.6484375,-0.195
56.65625,-0.205
56.6640625,-0.245
56.671875,-0.235
56.6796875,-0.255
